Data from Absorbance_00007.txt Node
Date: Wed Aug 02 13:31:43 MSK 2023
User: vat
Spectrometer: MAYP114033
Trigger mode: 0
Integration Time (sec): 8,000000E-3
Scans to average: 10
Electric dark correction enabled: true
Nonlinearity correction enabled: false
Boxcar width: 3
XAxis mode: Wavelengths
Number of Pixels in Spectrum: 2068
>>>>>Begin Spectral Data<<<<<
199,4	-0,621
199,9	-0,05
200,4	0,369
200,8	0,805
201,3	0,955
201,8	1,011
202,2	1,052
202,7	1,066
203,2	1,128
203,6	1,141
204,1	1,127
204,6	1,125
205	1,113
205,5	1,111
206	1,101
206,4	1,088
206,9	1,108
207,4	1,126
207,8	1,158
208,3	1,188
208,8	1,198
209,2	1,229
209,7	1,257
210,2	1,269
210,6	1,287
211,1	1,287
211,5	1,307
212	1,329
212,5	1,341
212,9	1,366
213,4	1,382
213,9	1,379
214,3	1,391
214,8	1,38
215,3	1,394
215,7	1,407
216,2	1,412
216,7	1,422
217,1	1,455
217,6	1,458
218,1	1,492
218,5	1,51
219	1,517
219,5	1,532
219,9	1,565
220,4	1,579
220,9	1,591
221,3	1,585
221,8	1,595
222,3	1,611
222,7	1,641
223,2	1,637
223,6	1,649
224,1	1,701
224,6	1,723
225	1,739
225,5	1,762
226	1,762
226,4	1,778
226,9	1,784
227,4	1,772
227,8	1,784
228,3	1,809
228,8	1,825
229,2	1,835
229,7	1,856
230,2	1,88
230,6	1,906
231,1	1,945
231,5	1,949
232	1,958
232,5	1,967
232,9	1,962
233,4	1,981
233,9	1,98
234,3	1,965
234,8	1,967
235,3	1,986
235,7	1,997
236,2	2,014
236,7	2,016
237,1	2,016
237,6	2,027
238,1	2,06
238,5	2,064
239	2,058
239,4	2,059
239,9	2,043
240,4	2,042
240,8	2,058
241,3	2,036
241,8	2,03
242,2	2,035
242,7	2,044
243,2	2,075
243,6	2,097
244,1	2,088
244,6	2,112
245	2,124
245,5	2,145
245,9	2,142
246,4	2,12
246,9	2,135
247,3	2,141
247,8	2,139
248,3	2,135
248,7	2,128
249,2	2,125
249,7	2,141
250,1	2,117
250,6	2,131
251	2,127
251,5	2,108
252	2,109
252,4	2,13
252,9	2,124
253,4	2,13
253,8	2,121
254,3	2,14
254,8	2,168
255,2	2,184
255,7	2,17
256,1	2,197
256,6	2,209
257,1	2,209
257,5	2,174
258	2,181
258,5	2,163
258,9	2,166
259,4	2,133
259,9	2,124
260,3	2,141
260,8	2,145
261,2	2,139
261,7	2,169
262,2	2,165
262,6	2,203
263,1	2,206
263,6	2,19
264	2,187
264,5	2,175
264,9	2,137
265,4	2,133
265,9	2,112
266,3	2,117
266,8	2,136
267,3	2,153
267,7	2,176
268,2	2,214
268,7	2,219
269,1	2,205
269,6	2,212
270	2,175
270,5	2,18
271	2,174
271,4	2,152
271,9	2,161
272,4	2,158
272,8	2,181
273,3	2,201
273,7	2,181
274,2	2,193
274,7	2,184
275,1	2,188
275,6	2,199
276,1	2,18
276,5	2,189
277	2,189
277,4	2,184
277,9	2,205
278,4	2,209
278,8	2,205
279,3	2,196
279,8	2,185
280,2	2,192
280,7	2,171
281,1	2,167
281,6	2,158
282,1	2,176
282,5	2,162
283	2,146
283,4	2,125
283,9	2,096
284,4	2,081
284,8	2,047
285,3	1,997
285,8	1,961
286,2	1,912
286,7	1,865
287,1	1,814
287,6	1,755
288,1	1,699
288,5	1,652
289	1,597
289,5	1,548
289,9	1,499
290,4	1,454
290,8	1,414
291,3	1,374
291,8	1,334
292,2	1,301
292,7	1,267
293,1	1,239
293,6	1,214
294,1	1,184
294,5	1,16
295	1,138
295,5	1,117
295,9	1,102
296,4	1,087
296,8	1,072
297,3	1,062
297,8	1,051
298,2	1,04
298,7	1,029
299,1	1,018
299,6	1,009
300,1	1,003
300,5	0,992
301	0,985
301,5	0,978
301,9	0,972
302,4	0,964
302,8	0,956
303,3	0,949
303,8	0,945
304,2	0,939
304,7	0,932
305,1	0,925
305,6	0,92
306,1	0,913
306,5	0,905
307	0,898
307,4	0,892
307,9	0,885
308,4	0,879
308,8	0,871
309,3	0,865
309,8	0,859
310,2	0,852
310,7	0,845
311,1	0,837
311,6	0,831
312,1	0,824
312,5	0,817
313	0,81
313,4	0,804
313,9	0,797
314,4	0,79
314,8	0,782
315,3	0,776
315,7	0,769
316,2	0,763
316,7	0,754
317,1	0,747
317,6	0,742
318	0,735
318,5	0,727
319	0,72
319,4	0,712
319,9	0,705
320,3	0,698
320,8	0,691
321,3	0,684
321,7	0,679
322,2	0,671
322,6	0,663
323,1	0,656
323,6	0,649
324	0,643
324,5	0,636
324,9	0,628
325,4	0,621
325,9	0,616
326,3	0,61
326,8	0,603
327,2	0,597
327,7	0,591
328,2	0,584
328,6	0,578
329,1	0,572
329,5	0,565
330	0,558
330,5	0,55
330,9	0,543
331,4	0,537
331,8	0,53
332,3	0,523
332,8	0,518
333,2	0,512
333,7	0,506
334,1	0,501
334,6	0,494
335,1	0,488
335,5	0,483
336	0,476
336,4	0,47
336,9	0,464
337,4	0,457
337,8	0,452
338,3	0,445
338,7	0,437
339,2	0,431
339,7	0,425
340,1	0,418
340,6	0,412
341	0,406
341,5	0,4
342	0,395
342,4	0,389
342,9	0,384
343,3	0,379
343,8	0,374
344,2	0,369
344,7	0,364
345,2	0,359
345,6	0,354
346,1	0,348
346,5	0,343
347	0,338
347,5	0,333
347,9	0,328
348,4	0,324
348,8	0,319
349,3	0,314
349,8	0,309
350,2	0,304
350,7	0,3
351,1	0,296
351,6	0,291
352	0,286
352,5	0,282
353	0,278
353,4	0,273
353,9	0,268
354,3	0,264
354,8	0,26
355,3	0,257
355,7	0,253
356,2	0,25
356,6	0,246
357,1	0,243
357,5	0,239
358	0,235
358,5	0,231
358,9	0,228
359,4	0,224
359,8	0,221
360,3	0,218
360,8	0,216
361,2	0,212
361,7	0,21
362,1	0,207
362,6	0,204
363	0,201
363,5	0,198
364	0,195
364,4	0,192
364,9	0,19
365,3	0,187
365,8	0,184
366,3	0,181
366,7	0,179
367,2	0,177
367,6	0,175
368,1	0,172
368,5	0,17
369	0,168
369,5	0,167
369,9	0,165
370,4	0,162
370,8	0,16
371,3	0,158
371,7	0,155
372,2	0,153
372,7	0,151
373,1	0,149
373,6	0,147
374	0,145
374,5	0,144
374,9	0,142
375,4	0,14
375,9	0,138
376,3	0,136
376,8	0,134
377,2	0,133
377,7	0,13
378,2	0,129
378,6	0,128
379,1	0,127
379,5	0,126
380	0,125
380,4	0,123
380,9	0,122
381,4	0,12
381,8	0,118
382,3	0,116
382,7	0,114
383,2	0,111
383,6	0,109
384,1	0,108
384,6	0,107
385	0,105
385,5	0,104
385,9	0,103
386,4	0,101
386,8	0,1
387,3	0,098
387,7	0,096
388,2	0,094
388,7	0,092
389,1	0,091
389,6	0,09
390	0,088
390,5	0,086
390,9	0,085
391,4	0,083
391,9	0,082
392,3	0,08
392,8	0,079
393,2	0,078
393,7	0,077
394,1	0,076
394,6	0,075
395,1	0,075
395,5	0,075
396	0,074
396,4	0,073
396,9	0,072
397,3	0,071
397,8	0,07
398,2	0,069
398,7	0,068
399,2	0,067
399,6	0,066
400,1	0,066
400,5	0,066
401	0,065
401,4	0,064
401,9	0,063
402,4	0,063
402,8	0,063
403,3	0,062
403,7	0,062
404,2	0,061
404,6	0,06
405,1	0,06
405,5	0,06
406	0,06
406,5	0,059
406,9	0,059
407,4	0,059
407,8	0,058
408,3	0,057
408,7	0,057
409,2	0,056
409,6	0,055
410,1	0,054
410,6	0,054
411	0,054
411,5	0,054
411,9	0,054
412,4	0,054
412,8	0,054
413,3	0,054
413,7	0,054
414,2	0,053
414,7	0,052
415,1	0,051
415,6	0,052
416	0,051
416,5	0,051
416,9	0,05
417,4	0,049
417,8	0,049
418,3	0,048
418,8	0,047
419,2	0,047
419,7	0,047
420,1	0,047
420,6	0,046
421	0,046
421,5	0,046
421,9	0,046
422,4	0,045
422,8	0,045
423,3	0,044
423,8	0,044
424,2	0,044
424,7	0,044
425,1	0,043
425,6	0,044
426	0,043
426,5	0,043
426,9	0,043
427,4	0,043
427,9	0,042
428,3	0,042
428,8	0,042
429,2	0,042
429,7	0,042
430,1	0,042
430,6	0,042
431	0,042
431,5	0,041
431,9	0,04
432,4	0,041
432,8	0,04
433,3	0,04
433,8	0,039
434,2	0,039
434,7	0,039
435,1	0,039
435,6	0,038
436	0,037
436,5	0,037
436,9	0,037
437,4	0,037
437,8	0,036
438,3	0,036
438,8	0,035
439,2	0,036
439,7	0,036
440,1	0,036
440,6	0,035
441	0,034
441,5	0,035
441,9	0,035
442,4	0,035
442,8	0,035
443,3	0,035
443,7	0,035
444,2	0,036
444,7	0,036
445,1	0,035
445,6	0,036
446	0,035
446,5	0,035
446,9	0,035
447,4	0,035
447,8	0,035
448,3	0,035
448,7	0,034
449,2	0,034
449,6	0,034
450,1	0,034
450,6	0,034
451	0,034
451,5	0,034
451,9	0,034
452,4	0,034
452,8	0,034
453,3	0,035
453,7	0,035
454,2	0,034
454,6	0,034
455,1	0,034
455,5	0,034
456	0,033
456,4	0,033
456,9	0,032
457,3	0,032
457,8	0,032
458,3	0,032
458,7	0,032
459,2	0,032
459,6	0,032
460,1	0,031
460,5	0,031
461	0,031
461,4	0,03
461,9	0,031
462,3	0,031
462,8	0,031
463,2	0,032
463,7	0,031
464,1	0,031
464,6	0,031
465	0,031
465,5	0,031
466	0,031
466,4	0,031
466,9	0,03
467,3	0,03
467,8	0,03
468,2	0,03
468,7	0,03
469,1	0,03
469,6	0,029
470	0,03
470,5	0,03
470,9	0,03
471,4	0,029
471,8	0,029
472,3	0,029
472,7	0,029
473,2	0,029
473,6	0,029
474,1	0,029
474,5	0,029
475	0,03
475,4	0,029
475,9	0,028
476,4	0,028
476,8	0,028
477,3	0,028
477,7	0,028
478,2	0,028
478,6	0,029
479,1	0,029
479,5	0,03
480	0,03
480,4	0,03
480,9	0,03
481,3	0,03
481,8	0,029
482,2	0,029
482,7	0,028
483,1	0,028
483,6	0,028
484	0,028
484,5	0,028
484,9	0,028
485,4	0,029
485,8	0,029
486,3	0,03
486,7	0,029
487,2	0,029
487,6	0,029
488,1	0,029
488,5	0,028
489	0,028
489,4	0,027
489,9	0,027
490,4	0,027
490,8	0,028
491,3	0,028
491,7	0,029
492,2	0,029
492,6	0,029
493,1	0,029
493,5	0,029
494	0,028
494,4	0,028
494,9	0,028
495,3	0,029
495,8	0,028
496,2	0,029
496,7	0,029
497,1	0,029
497,6	0,03
498	0,03
498,5	0,03
498,9	0,03
499,4	0,029
499,8	0,029
500,3	0,03
500,7	0,03
501,2	0,029
501,6	0,029
502,1	0,029
502,5	0,029
503	0,029
503,4	0,029
503,9	0,029
504,3	0,029
504,8	0,029
505,2	0,029
505,7	0,029
506,1	0,03
506,6	0,029
507	0,029
507,5	0,029
507,9	0,029
508,4	0,029
508,8	0,03
509,3	0,03
509,7	0,03
510,2	0,031
510,6	0,031
511,1	0,031
511,5	0,03
512	0,03
512,4	0,029
512,9	0,029
513,3	0,029
513,8	0,029
514,2	0,029
514,7	0,03
515,1	0,03
515,6	0,031
516	0,03
516,5	0,03
516,9	0,03
517,4	0,03
517,8	0,03
518,3	0,03
518,7	0,03
519,2	0,031
519,6	0,032
520,1	0,031
520,5	0,032
521	0,032
521,4	0,031
521,9	0,031
522,3	0,031
522,8	0,029
523,2	0,029
523,7	0,029
524,1	0,029
524,6	0,029
525	0,029
525,5	0,029
525,9	0,03
526,4	0,03
526,8	0,03
527,3	0,03
527,7	0,03
528,2	0,03
528,6	0,03
529,1	0,031
529,5	0,031
530	0,032
530,4	0,032
530,9	0,032
531,3	0,032
531,8	0,032
532,2	0,031
532,6	0,031
533,1	0,03
533,5	0,03
534	0,03
534,4	0,03
534,9	0,03
535,3	0,03
535,8	0,03
536,2	0,03
536,7	0,03
537,1	0,03
537,6	0,031
538	0,031
538,5	0,03
538,9	0,03
539,4	0,03
539,8	0,03
540,3	0,03
540,7	0,029
541,2	0,029
541,6	0,029
542,1	0,029
542,5	0,029
543	0,029
543,4	0,029
543,9	0,029
544,3	0,029
544,8	0,03
545,2	0,03
545,7	0,03
546,1	0,03
546,5	0,031
547	0,031
547,4	0,031
547,9	0,03
548,3	0,03
548,8	0,029
549,2	0,03
549,7	0,029
550,1	0,028
550,6	0,028
551	0,028
551,5	0,028
551,9	0,028
552,4	0,027
552,8	0,028
553,3	0,027
553,7	0,027
554,2	0,028
554,6	0,028
555,1	0,028
555,5	0,028
555,9	0,028
556,4	0,028
556,8	0,028
557,3	0,028
557,7	0,028
558,2	0,028
558,6	0,029
559,1	0,029
559,5	0,029
560	0,029
560,4	0,028
560,9	0,028
561,3	0,028
561,8	0,027
562,2	0,027
562,7	0,027
563,1	0,027
563,6	0,027
564	0,027
564,4	0,028
564,9	0,028
565,3	0,028
565,8	0,028
566,2	0,027
566,7	0,027
567,1	0,026
567,6	0,025
568	0,025
568,5	0,025
568,9	0,026
569,4	0,026
569,8	0,027
570,3	0,027
570,7	0,027
571,1	0,027
571,6	0,027
572	0,027
572,5	0,027
572,9	0,026
573,4	0,026
573,8	0,026
574,3	0,025
574,7	0,025
575,2	0,025
575,6	0,025
576,1	0,025
576,5	0,025
576,9	0,025
577,4	0,025
577,8	0,025
578,3	0,025
578,7	0,025
579,2	0,024
579,6	0,024
580,1	0,024
580,5	0,023
581	0,023
581,4	0,023
581,9	0,023
582,3	0,023
582,7	0,023
583,2	0,023
583,6	0,023
584,1	0,023
584,5	0,022
585	0,023
585,4	0,023
585,9	0,023
586,3	0,023
586,8	0,023
587,2	0,023
587,6	0,023
588,1	0,022
588,5	0,022
589	0,022
589,4	0,022
589,9	0,022
590,3	0,022
590,8	0,022
591,2	0,021
591,7	0,022
592,1	0,022
592,5	0,022
593	0,022
593,4	0,022
593,9	0,021
594,3	0,021
594,8	0,021
595,2	0,021
595,7	0,021
596,1	0,02
596,6	0,021
597	0,021
597,4	0,021
597,9	0,02
598,3	0,02
598,8	0,02
599,2	0,02
599,7	0,02
600,1	0,019
600,6	0,019
601	0,019
601,4	0,019
601,9	0,019
602,3	0,019
602,8	0,019
603,2	0,019
603,7	0,019
604,1	0,019
604,6	0,019
605	0,019
605,4	0,019
605,9	0,019
606,3	0,018
606,8	0,018
607,2	0,018
607,7	0,018
608,1	0,018
608,6	0,018
609	0,018
609,4	0,018
609,9	0,018
610,3	0,019
610,8	0,019
611,2	0,019
611,7	0,019
612,1	0,019
612,6	0,019
613	0,018
613,4	0,018
613,9	0,018
614,3	0,018
614,8	0,017
615,2	0,017
615,7	0,017
616,1	0,017
616,6	0,017
617	0,016
617,4	0,016
617,9	0,016
618,3	0,016
618,8	0,016
619,2	0,017
619,7	0,016
620,1	0,016
620,5	0,016
621	0,016
621,4	0,016
621,9	0,017
622,3	0,017
622,8	0,017
623,2	0,017
623,6	0,017
624,1	0,016
624,5	0,016
625	0,016
625,4	0,016
625,9	0,015
626,3	0,016
626,8	0,016
627,2	0,016
627,6	0,016
628,1	0,016
628,5	0,016
629	0,016
629,4	0,016
629,9	0,015
630,3	0,015
630,7	0,015
631,2	0,014
631,6	0,014
632,1	0,015
632,5	0,015
633	0,015
633,4	0,015
633,8	0,015
634,3	0,015
634,7	0,015
635,2	0,015
635,6	0,015
636,1	0,014
636,5	0,014
636,9	0,014
637,4	0,014
637,8	0,013
638,3	0,013
638,7	0,013
639,2	0,014
639,6	0,013
640	0,014
640,5	0,014
640,9	0,014
641,4	0,013
641,8	0,013
642,2	0,013
642,7	0,013
643,1	0,012
643,6	0,012
644	0,013
644,5	0,013
644,9	0,013
645,3	0,013
645,8	0,013
646,2	0,013
646,7	0,013
647,1	0,012
647,6	0,012
648	0,012
648,4	0,012
648,9	0,012
649,3	0,012
649,8	0,012
650,2	0,011
650,6	0,012
651,1	0,011
651,5	0,011
652	0,011
652,4	0,011
652,9	0,011
653,3	0,011
653,7	0,011
654,2	0,011
654,6	0,011
655,1	0,01
655,5	0,005
655,9	0,003
656,4	0,002
656,8	0,003
657,3	0,003
657,7	0,003
658,2	0,003
658,6	0,004
659	0,006
659,5	0,011
659,9	0,013
660,4	0,014
660,8	0,014
661,2	0,014
661,7	0,014
662,1	0,013
662,6	0,013
663	0,012
663,4	0,012
663,9	0,012
664,3	0,012
664,8	0,012
665,2	0,012
665,6	0,012
666,1	0,011
666,5	0,011
667	0,011
667,4	0,011
667,9	0,011
668,3	0,01
668,7	0,01
669,2	0,01
669,6	0,01
670,1	0,01
670,5	0,01
670,9	0,009
671,4	0,01
671,8	0,01
672,3	0,01
672,7	0,01
673,1	0,01
673,6	0,01
674	0,01
674,5	0,01
674,9	0,01
675,3	0,01
675,8	0,01
676,2	0,01
676,7	0,01
677,1	0,009
677,5	0,009
678	0,009
678,4	0,01
678,9	0,01
679,3	0,01
679,7	0,01
680,2	0,01
680,6	0,01
681,1	0,01
681,5	0,01
681,9	0,009
682,4	0,009
682,8	0,009
683,3	0,009
683,7	0,009
684,1	0,009
684,6	0,01
685	0,01
685,5	0,009
685,9	0,009
686,3	0,009
686,8	0,009
687,2	0,009
687,7	0,009
688,1	0,009
688,5	0,009
689	0,009
689,4	0,009
689,9	0,009
690,3	0,009
690,7	0,009
691,2	0,009
691,6	0,01
692	0,01
692,5	0,009
692,9	0,01
693,4	0,009
693,8	0,009
694,2	0,009
694,7	0,009
695,1	0,009
695,6	0,009
696	0,01
696,4	0,01
696,9	0,01
697,3	0,01
697,8	0,01
698,2	0,009
698,6	0,009
699,1	0,009
699,5	0,009
699,9	0,009
700,4	0,008
700,8	0,008
701,3	0,008
701,7	0,008
702,1	0,008
702,6	0,008
703	0,008
703,5	0,008
703,9	0,008
704,3	0,008
704,8	0,008
705,2	0,008
705,6	0,008
706,1	0,007
706,5	0,007
707	0,007
707,4	0,007
707,8	0,007
708,3	0,008
708,7	0,008
709,2	0,009
709,6	0,009
710	0,009
710,5	0,009
710,9	0,009
711,3	0,008
711,8	0,008
712,2	0,008
712,7	0,008
713,1	0,008
713,5	0,008
714	0,008
714,4	0,008
714,8	0,009
715,3	0,008
715,7	0,008
716,2	0,008
716,6	0,008
717	0,008
717,5	0,008
717,9	0,008
718,3	0,008
718,8	0,008
719,2	0,008
719,7	0,008
720,1	0,008
720,5	0,008
721	0,008
721,4	0,008
721,8	0,007
722,3	0,008
722,7	0,007
723,2	0,008
723,6	0,008
724	0,008
724,5	0,008
724,9	0,008
725,3	0,008
725,8	0,008
726,2	0,008
726,7	0,008
727,1	0,008
727,5	0,008
728	0,008
728,4	0,008
728,8	0,008
729,3	0,008
729,7	0,008
730,1	0,008
730,6	0,008
731	0,008
731,5	0,008
731,9	0,007
732,3	0,007
732,8	0,007
733,2	0,007
733,6	0,006
734,1	0,006
734,5	0,006
734,9	0,006
735,4	0,006
735,8	0,006
736,3	0,006
736,7	0,007
737,1	0,007
737,6	0,007
738	0,007
738,4	0,007
738,9	0,008
739,3	0,008
739,7	0,008
740,2	0,008
740,6	0,007
741,1	0,008
741,5	0,007
741,9	0,008
742,4	0,007
742,8	0,008
743,2	0,008
743,7	0,008
744,1	0,008
744,5	0,008
745	0,008
745,4	0,008
745,8	0,008
746,3	0,008
746,7	0,007
747,2	0,007
747,6	0,007
748	0,007
748,5	0,007
748,9	0,006
749,3	0,007
749,8	0,007
750,2	0,007
750,6	0,006
751,1	0,006
751,5	0,006
751,9	0,006
752,4	0,006
752,8	0,006
753,3	0,006
753,7	0,007
754,1	0,007
754,6	0,007
755	0,007
755,4	0,007
755,9	0,007
756,3	0,007
756,7	0,007
757,2	0,007
757,6	0,006
758	0,006
758,5	0,006
758,9	0,006
759,3	0,006
759,8	0,006
760,2	0,006
760,6	0,006
761,1	0,007
761,5	0,007
761,9	0,007
762,4	0,007
762,8	0,007
763,3	0,007
763,7	0,007
764,1	0,007
764,6	0,007
765	0,007
765,4	0,006
765,9	0,006
766,3	0,006
766,7	0,006
767,2	0,007
767,6	0,007
768	0,007
768,5	0,007
768,9	0,007
769,3	0,007
769,8	0,007
770,2	0,007
770,6	0,007
771,1	0,007
771,5	0,006
771,9	0,006
772,4	0,006
772,8	0,006
773,2	0,006
773,7	0,005
774,1	0,005
774,5	0,005
775	0,005
775,4	0,005
775,8	0,006
776,3	0,006
776,7	0,006
777,1	0,006
777,6	0,006
778	0,007
778,4	0,006
778,9	0,006
779,3	0,007
779,7	0,007
780,2	0,006
780,6	0,006
781	0,006
781,5	0,005
781,9	0,005
782,3	0,005
782,8	0,005
783,2	0,005
783,6	0,005
784,1	0,005
784,5	0,006
784,9	0,006
785,4	0,006
785,8	0,006
786,2	0,006
786,7	0,006
787,1	0,006
787,5	0,006
788	0,006
788,4	0,006
788,8	0,006
789,3	0,006
789,7	0,006
790,1	0,006
790,6	0,006
791	0,006
791,4	0,006
791,9	0,006
792,3	0,006
792,7	0,006
793,2	0,006
793,6	0,006
794	0,007
794,5	0,006
794,9	0,006
795,3	0,007
795,8	0,006
796,2	0,007
796,6	0,006
797,1	0,006
797,5	0,006
797,9	0,006
798,4	0,006
798,8	0,006
799,2	0,006
799,7	0,006
800,1	0,006
800,5	0,006
801	0,006
801,4	0,006
801,8	0,006
802,2	0,005
802,7	0,005
803,1	0,005
803,5	0,006
804	0,006
804,4	0,006
804,8	0,006
805,3	0,006
805,7	0,006
806,1	0,006
806,6	0,005
807	0,005
807,4	0,005
807,9	0,005
808,3	0,005
808,7	0,005
809,2	0,005
809,6	0,005
810	0,006
810,4	0,006
810,9	0,006
811,3	0,006
811,7	0,006
812,2	0,006
812,6	0,006
813	0,006
813,5	0,005
813,9	0,006
814,3	0,006
814,8	0,006
815,2	0,006
815,6	0,006
816,1	0,006
816,5	0,006
816,9	0,006
817,3	0,006
817,8	0,007
818,2	0,006
818,6	0,006
819,1	0,006
819,5	0,006
819,9	0,006
820,4	0,006
820,8	0,006
821,2	0,006
821,7	0,007
822,1	0,007
822,5	0,007
822,9	0,007
823,4	0,007
823,8	0,007
824,2	0,007
824,7	0,007
825,1	0,007
825,5	0,006
826	0,006
826,4	0,006
826,8	0,005
827,3	0,005
827,7	0,005
828,1	0,004
828,5	0,004
829	0,004
829,4	0,005
829,8	0,005
830,3	0,005
830,7	0,005
831,1	0,005
831,6	0,005
832	0,005
832,4	0,005
832,8	0,005
833,3	0,005
833,7	0,005
834,1	0,005
834,6	0,005
835	0,005
835,4	0,005
835,8	0,005
836,3	0,005
836,7	0,006
837,1	0,006
837,6	0,006
838	0,006
838,4	0,006
838,9	0,006
839,3	0,006
839,7	0,005
840,1	0,005
840,6	0,005
841	0,005
841,4	0,005
841,9	0,005
842,3	0,005
842,7	0,005
843,1	0,005
843,6	0,004
844	0,004
844,4	0,004
844,9	0,004
845,3	0,004
845,7	0,004
846,2	0,004
846,6	0,004
847	0,004
847,4	0,004
847,9	0,004
848,3	0,004
848,7	0,004
849,2	0,005
849,6	0,005
850	0,005
850,4	0,005
850,9	0,004
851,3	0,005
851,7	0,005
852,2	0,004
852,6	0,004
853	0,004
853,4	0,004
853,9	0,004
854,3	0,004
854,7	0,004
855,2	0,004
855,6	0,004
856	0,004
856,4	0,004
856,9	0,004
857,3	0,004
857,7	0,004
858,2	0,004
858,6	0,004
859	0,005
859,4	0,005
859,9	0,005
860,3	0,005
860,7	0,005
861,1	0,005
861,6	0,005
862	0,005
862,4	0,005
862,9	0,005
863,3	0,005
863,7	0,005
864,1	0,005
864,6	0,004
865	0,004
865,4	0,004
865,9	0,004
866,3	0,004
866,7	0,004
867,1	0,004
867,6	0,004
868	0,004
868,4	0,004
868,8	0,004
869,3	0,004
869,7	0,004
870,1	0,004
870,6	0,004
871	0,004
871,4	0,004
871,8	0,004
872,3	0,004
872,7	0,004
873,1	0,004
873,5	0,004
874	0,004
874,4	0,004
874,8	0,004
875,3	0,005
875,7	0,005
876,1	0,004
876,5	0,005
877	0,005
877,4	0,004
877,8	0,004
878,2	0,004
878,7	0,004
879,1	0,005
879,5	0,004
879,9	0,004
880,4	0,004
880,8	0,004
881,2	0,005
881,7	0,004
882,1	0,004
882,5	0,004
882,9	0,004
883,4	0,004
883,8	0,004
884,2	0,004
884,6	0,004
885,1	0,004
885,5	0,004
885,9	0,005
886,3	0,005
886,8	0,004
887,2	0,004
887,6	0,004
888	0,004
888,5	0,004
888,9	0,004
889,3	0,004
889,8	0,004
890,2	0,004
890,6	0,004
891	0,004
891,5	0,005
891,9	0,005
892,3	0,005
892,7	0,004
893,2	0,004
893,6	0,004
894	0,004
894,4	0,004
894,9	0,004
895,3	0,004
895,7	0,004
896,1	0,003
896,6	0,003
897	0,003
897,4	0,003
897,8	0,003
898,3	0,003
898,7	0,003
899,1	0,003
899,5	0,003
900	0,003
900,4	0,003
900,8	0,004
901,2	0,004
901,7	0,004
902,1	0,004
902,5	0,004
902,9	0,004
903,4	0,004
903,8	0,004
904,2	0,004
904,6	0,004
905,1	0,004
905,5	0,004
905,9	0,004
906,3	0,004
906,8	0,004
907,2	0,004
907,6	0,005
908	0,004
908,5	0,004
908,9	0,004
909,3	0,004
909,7	0,004
910,2	0,004
910,6	0,004
911	0,004
911,4	0,004
911,9	0,005
912,3	0,005
912,7	0,005
913,1	0,005
913,6	0,005
914	0,005
914,4	0,005
914,8	0,005
915,3	0,005
915,7	0,005
916,1	0,005
916,5	0,005
916,9	0,005
917,4	0,005
917,8	0,004
918,2	0,004
918,6	0,004
919,1	0,004
919,5	0,004
919,9	0,004
920,3	0,004
920,8	0,004
921,2	0,004
921,6	0,004
922	0,004
922,5	0,004
922,9	0,004
923,3	0,004
923,7	0,004
924,2	0,004
924,6	0,004
925	0,004
925,4	0,004
925,8	0,004
926,3	0,004
926,7	0,003
927,1	0,003
927,5	0,004
928	0,004
928,4	0,003
928,8	0,003
929,2	0,003
929,7	0,003
930,1	0,003
930,5	0,003
930,9	0,003
931,3	0,003
931,8	0,003
932,2	0,002
932,6	0,003
933	0,003
933,5	0,003
933,9	0,002
934,3	0,002
934,7	0,002
935,2	0,002
935,6	0,002
936	0,003
936,4	0,003
936,8	0,003
937,3	0,004
937,7	0,004
938,1	0,004
938,5	0,003
939	0,002
939,4	0,002
939,8	0,002
940,2	0,002
940,6	0,002
941,1	0,003
941,5	0,003
941,9	0,004
942,3	0,004
942,8	0,004
943,2	0,004
943,6	0,004
944	0,004
944,4	0,004
944,9	0,003
945,3	0,003
945,7	0,003
946,1	0,003
946,6	0,003
947	0,003
947,4	0,002
947,8	0,002
948,2	0,002
948,7	0,002
949,1	0,002
949,5	0,002
949,9	0,002
950,3	0,001
950,8	0,001
951,2	0,001
951,6	0,001
952	0
952,5	-0
952,9	0
953,3	0
953,7	-0
954,1	-0
954,6	-0
955	-0
955,4	-0,001
955,8	-0,001
956,2	-0,001
956,7	-0,002
957,1	-0,001
957,5	-0,001
957,9	-0,002
958,3	-0,002
958,8	-0,002
959,2	-0,002
959,6	-0,003
960	-0,003
960,5	-0,004
960,9	-0,004
961,3	-0,003
961,7	-0,004
962,1	-0,003
962,6	-0,004
963	-0,003
963,4	-0,003
963,8	-0,003
964,2	-0,003
964,7	-0,003
965,1	-0,003
965,5	-0,002
965,9	-0,002
966,3	-0,002
966,8	-0,002
967,2	-0,001
967,6	-0,001
968	-0,001
968,4	-0,001
968,9	-0,001
969,3	-0,001
969,7	-0
970,1	-0,001
970,5	-0
971	-0
971,4	-0,001
971,8	-0,001
972,2	-0
972,6	-0
973,1	-0
973,5	-0
973,9	-0
974,3	-0
974,7	-0
975,2	-0
975,6	-0,001
976	0
976,4	0
976,8	0
977,3	0,001
977,7	0,001
978,1	0,001
978,5	0,001
978,9	0
979,4	0,001
979,8	0,001
980,2	0,001
980,6	0,001
981	0
981,5	0
981,9	0,001
982,3	0
982,7	-0
983,1	0
983,6	-0
984	0
984,4	0
984,8	-0
985,2	0
985,6	0
986,1	-0
986,5	-0
986,9	-0
987,3	-0
987,7	0
988,2	0
988,6	0
989	0
989,4	0,001
989,8	0,001
990,3	0,001
990,7	0
991,1	0,001
991,5	0
991,9	0,001
992,3	0,001
992,8	0,001
993,2	0,001
993,6	0,001
994	0
994,4	0,001
994,9	0
995,3	0,001
995,7	0,001
996,1	0,001
996,5	0,001
996,9	0,002
997,4	0,001
997,8	0,001
998,2	0
998,6	0
999	0,001
999,5	0
999,9	-0
1000,3	0
1000,7	0
1001,1	0
1001,5	0
1002	0,001
1002,4	0,002
1002,8	0,002
1003,2	0,002
1003,6	0,002
1004	0,003
1004,5	0,002
1004,9	0,002
1005,3	0,002
1005,7	0,002
1006,1	0,003
1006,6	0,003
1007	0,002
1007,4	0,003
1007,8	0,004
1008,2	0,004
1008,6	0,004
1009,1	0,004
1009,5	0,004
1009,9	0,004
1010,3	0,004
1010,7	0,004
1011,1	0,004
1011,6	0,005
1012	0,005
1012,4	0,005
1012,8	0,005
1013,2	0,005
1013,6	0,004
1014,1	0,004
1014,5	0,004
1014,9	0,003
1015,3	0,003
1015,7	0,003
1016,1	0,003
1016,6	0,003
1017	0,003
1017,4	0,004
1017,8	0,004
1018,2	0,005
1018,6	0,004
1019,1	0,005
1019,5	0,005
1019,9	0,005
1020,3	0,005
1020,7	0,005
1021,1	0,004
1021,6	0,005
1022	0,005
1022,4	0,004
1022,8	0,004
1023,2	0,005
1023,6	0,004
1024,1	0,005
1024,5	0,005
1024,9	0,004
1025,3	0,004
1025,7	0,004
1026,1	0,003
1026,6	0,003
1027	0,003
1027,4	0,003
1027,8	0,004
1028,2	0,005
1028,6	0,005
1029	0,005
1029,5	0,006
1029,9	0,006
1030,3	0,006
1030,7	0,005
1031,1	0,004
1031,5	0,004
1032	0,004
1032,4	0,004
1032,8	0,003
1033,2	0,003
1033,6	0,003
1034	0,002
1034,4	0,002
1034,9	0,002
1035,3	0,001
1035,7	0,001
1036,1	0,001
1036,5	0,001
1036,9	0,002
1037,4	0,003
1037,8	0,003
1038,2	0,004
1038,6	0,004
1039	0,004
1039,4	0,005
1039,8	0,004
1040,3	0,003
1040,7	0,003
1041,1	0,003
1041,5	0,004
1041,9	0,004
1042,3	0,004
1042,7	0,004
1043,2	0,005
1043,6	0,004
1044	0,004
1044,4	0,003
1044,8	0,002
1045,2	0,002
1045,6	0,003
1046,1	0,003
1046,5	0,004
1046,9	0,004
1047,3	0,005
1047,7	0,005
1048,1	0,006
1048,5	0,005
1049	0,006
1049,4	0,004
1049,8	0,005
1050,2	0,004
1050,6	0,004
1051	0,004
1051,4	0,004
1051,9	0,003
1052,3	0,004
1052,7	0,004
1053,1	0,004
1053,5	0,004
1053,9	0,003
1054,3	0,004
1054,8	0,004
1055,2	0,004
1055,6	0,004
1056	0,004
1056,4	0,004
1056,8	0,005
1057,2	0,005
1057,6	0,005
1058,1	0,005
1058,5	0,006
1058,9	0,006
1059,3	0,006
1059,7	0,005
1060,1	0,006
1060,5	0,006
1061	0,006
1061,4	0,004
1061,8	0,004
1062,2	0,004
1062,6	0,004
1063	0,004
1063,4	0,003
1063,8	0,004
1064,3	0,003
1064,7	0,003
1065,1	0,003
1065,5	0,003
1065,9	0,003
1066,3	0,003
1066,7	0,002
1067,1	0,003
1067,6	0,004
1068	0,004
1068,4	0,005
1068,8	0,006
1069,2	0,006
1069,6	0,006
1070	0,006
1070,4	0,006
1070,9	0,004
1071,3	0,003
1071,7	0,003
1072,1	0,002
1072,5	0,003
1072,9	0,004
1073,3	0,003
1073,7	0,004
1074,2	0,004
1074,6	0,005
1075	0,005
1075,4	0,005
1075,8	0,005
1076,2	0,007
1076,6	0,006
1077	0,005
1077,5	0,004
1077,9	0,004
1078,3	0,004
1078,7	0,004
1079,1	0,003
1079,5	0,005
1079,9	0,006
1080,3	0,007
1080,7	0,007
1081,2	0,005
1081,6	0,004
1082	0,004
1082,4	0,004
1082,8	0,002
1083,2	0,001
1083,6	0,001
1084	0,002
1084,5	0,002
1084,9	0,001
1085,3	-0
1085,7	0,001
1086,1	0,002
1086,5	0,003
1086,9	0,004
1087,3	0,004
1087,7	0,004
1088,2	0,005
1088,6	0,003
1089	0,003
1089,4	0,002
1089,8	0,003
1090,2	0,001
1090,6	-0
1091	-0
1091,4	-0,001
1091,9	-0,002
1092,3	-0,004
1092,7	-0,006
1093,1	-0,005
1093,5	-0,004
1093,9	-0,005
1094,3	-0,004
1094,7	-0,007
1095,1	-0,004
1095,5	-0,005
1096	-0,002
1096,4	-0,002
1096,8	0,002
1097,2	0,001
1097,6	0,005
1098	0,004
1098,4	0,006
1098,8	0,005
1099,2	0,005
1099,6	0,001
1100,1	0,001
1100,5	-0,004
1100,9	-0
1101,3	0,001
1101,7	-0,001
1102,1	-0,004
1102,5	-0,01
1102,9	-0,013
1103,3	-0,007
1103,7	-0,012
1104,2	-0,022
1104,6	-0,031
1105	-0,038
1105,4	-0,033
1105,8	-0,02
1106,2	-0,027
1106,6	-0,04
1107	-0,056
1107,4	-0,057
1107,8	0,004
1108,3	0,029
