Data from Absorbance_00028.txt Node
Date: Wed Aug 02 14:11:36 MSK 2023
User: vat
Spectrometer: MAYP114033
Trigger mode: 0
Integration Time (sec): 8,000000E-3
Scans to average: 10
Electric dark correction enabled: true
Nonlinearity correction enabled: false
Boxcar width: 3
XAxis mode: Wavelengths
Number of Pixels in Spectrum: 2068
>>>>>Begin Spectral Data<<<<<
199,4	-0,905
199,9	-0,179
200,4	0,256
200,8	0,659
201,3	0,847
201,8	0,913
202,2	0,94
202,7	0,978
203,2	1,041
203,6	1,068
204,1	1,062
204,6	1,08
205	1,089
205,5	1,11
206	1,11
206,4	1,112
206,9	1,132
207,4	1,162
207,8	1,178
208,3	1,194
208,8	1,193
209,2	1,21
209,7	1,226
210,2	1,233
210,6	1,26
211,1	1,263
211,5	1,281
212	1,319
212,5	1,328
212,9	1,346
213,4	1,352
213,9	1,351
214,3	1,37
214,8	1,367
215,3	1,361
215,7	1,383
216,2	1,402
216,7	1,425
217,1	1,456
217,6	1,461
218,1	1,469
218,5	1,502
219	1,508
219,5	1,518
219,9	1,551
220,4	1,554
220,9	1,565
221,3	1,606
221,8	1,617
222,3	1,638
222,7	1,66
223,2	1,66
223,6	1,661
224,1	1,698
224,6	1,693
225	1,694
225,5	1,722
226	1,723
226,4	1,739
226,9	1,766
227,4	1,787
227,8	1,794
228,3	1,815
228,8	1,826
229,2	1,837
229,7	1,863
230,2	1,871
230,6	1,874
231,1	1,891
231,5	1,903
232	1,888
232,5	1,899
232,9	1,894
233,4	1,909
233,9	1,914
234,3	1,917
234,8	1,92
235,3	1,944
235,7	1,952
236,2	1,96
236,7	1,979
237,1	1,985
237,6	2,01
238,1	2,039
238,5	2,052
239	2,048
239,4	2,046
239,9	2,037
240,4	2,029
240,8	2,04
241,3	2,034
241,8	2,042
242,2	2,044
242,7	2,054
243,2	2,071
243,6	2,103
244,1	2,086
244,6	2,102
245	2,102
245,5	2,107
245,9	2,107
246,4	2,093
246,9	2,095
247,3	2,105
247,8	2,102
248,3	2,104
248,7	2,117
249,2	2,13
249,7	2,137
250,1	2,121
250,6	2,13
251	2,116
251,5	2,113
252	2,106
252,4	2,104
252,9	2,1
253,4	2,102
253,8	2,107
254,3	2,111
254,8	2,122
255,2	2,154
255,7	2,164
256,1	2,183
256,6	2,198
257,1	2,215
257,5	2,207
258	2,209
258,5	2,198
258,9	2,193
259,4	2,181
259,9	2,171
260,3	2,146
260,8	2,172
261,2	2,168
261,7	2,179
262,2	2,177
262,6	2,194
263,1	2,194
263,6	2,203
264	2,188
264,5	2,195
264,9	2,152
265,4	2,151
265,9	2,148
266,3	2,161
266,8	2,173
267,3	2,188
267,7	2,202
268,2	2,245
268,7	2,262
269,1	2,222
269,6	2,227
270	2,206
270,5	2,208
271	2,184
271,4	2,175
271,9	2,156
272,4	2,185
272,8	2,181
273,3	2,196
273,7	2,194
274,2	2,222
274,7	2,204
275,1	2,227
275,6	2,227
276,1	2,228
276,5	2,216
277	2,202
277,4	2,206
277,9	2,242
278,4	2,247
278,8	2,261
279,3	2,266
279,8	2,299
280,2	2,285
280,7	2,26
281,1	2,254
281,6	2,25
282,1	2,246
282,5	2,239
283	2,239
283,4	2,274
283,9	2,266
284,4	2,259
284,8	2,268
285,3	2,267
285,8	2,276
286,2	2,27
286,7	2,265
287,1	2,268
287,6	2,264
288,1	2,243
288,5	2,251
289	2,233
289,5	2,204
289,9	2,161
290,4	2,153
290,8	2,14
291,3	2,138
291,8	2,104
292,2	2,095
292,7	2,087
293,1	2,108
293,6	2,102
294,1	2,103
294,5	2,103
295	2,125
295,5	2,133
295,9	2,146
296,4	2,168
296,8	2,167
297,3	2,171
297,8	2,176
298,2	2,173
298,7	2,184
299,1	2,184
299,6	2,18
300,1	2,217
300,5	2,23
301	2,239
301,5	2,261
301,9	2,257
302,4	2,281
302,8	2,279
303,3	2,26
303,8	2,276
304,2	2,298
304,7	2,297
305,1	2,31
305,6	2,32
306,1	2,329
306,5	2,352
307	2,332
307,4	2,332
307,9	2,36
308,4	2,373
308,8	2,377
309,3	2,37
309,8	2,376
310,2	2,394
310,7	2,357
311,1	2,328
311,6	2,324
312,1	2,325
312,5	2,342
313	2,335
313,4	2,359
313,9	2,369
314,4	2,383
314,8	2,39
315,3	2,373
315,7	2,373
316,2	2,364
316,7	2,343
317,1	2,348
317,6	2,347
318	2,344
318,5	2,362
319	2,367
319,4	2,376
319,9	2,371
320,3	2,373
320,8	2,371
321,3	2,378
321,7	2,376
322,2	2,36
322,6	2,352
323,1	2,349
323,6	2,382
324	2,393
324,5	2,392
324,9	2,391
325,4	2,399
325,9	2,39
326,3	2,397
326,8	2,38
327,2	2,345
327,7	2,318
328,2	2,311
328,6	2,293
329,1	2,294
329,5	2,309
330	2,307
330,5	2,329
330,9	2,338
331,4	2,341
331,8	2,348
332,3	2,362
332,8	2,354
333,2	2,341
333,7	2,34
334,1	2,36
334,6	2,376
335,1	2,368
335,5	2,36
336	2,335
336,4	2,314
336,9	2,316
337,4	2,316
337,8	2,301
338,3	2,307
338,7	2,306
339,2	2,347
339,7	2,391
340,1	2,372
340,6	2,367
341	2,369
341,5	2,383
342	2,369
342,4	2,341
342,9	2,329
343,3	2,36
343,8	2,364
344,2	2,358
344,7	2,354
345,2	2,357
345,6	2,354
346,1	2,339
346,5	2,298
347	2,292
347,5	2,285
347,9	2,275
348,4	2,274
348,8	2,272
349,3	2,271
349,8	2,26
350,2	2,229
350,7	2,211
351,1	2,19
351,6	2,184
352	2,164
352,5	2,149
353	2,152
353,4	2,143
353,9	2,124
354,3	2,114
354,8	2,088
355,3	2,065
355,7	2,039
356,2	2,015
356,6	1,986
357,1	1,975
357,5	1,953
358	1,925
358,5	1,896
358,9	1,871
359,4	1,84
359,8	1,816
360,3	1,781
360,8	1,744
361,2	1,716
361,7	1,691
362,1	1,656
362,6	1,623
363	1,59
363,5	1,561
364	1,53
364,4	1,5
364,9	1,469
365,3	1,443
365,8	1,414
366,3	1,386
366,7	1,36
367,2	1,337
367,6	1,314
368,1	1,291
368,5	1,266
369	1,245
369,5	1,224
369,9	1,198
370,4	1,172
370,8	1,147
371,3	1,121
371,7	1,099
372,2	1,076
372,7	1,054
373,1	1,033
373,6	1,015
374	0,996
374,5	0,979
374,9	0,96
375,4	0,942
375,9	0,924
376,3	0,907
376,8	0,89
377,2	0,874
377,7	0,858
378,2	0,842
378,6	0,828
379,1	0,814
379,5	0,799
380	0,786
380,4	0,771
380,9	0,758
381,4	0,744
381,8	0,73
382,3	0,717
382,7	0,706
383,2	0,694
383,6	0,683
384,1	0,671
384,6	0,66
385	0,649
385,5	0,64
385,9	0,628
386,4	0,617
386,8	0,609
387,3	0,599
387,7	0,591
388,2	0,583
388,7	0,574
389,1	0,566
389,6	0,559
390	0,55
390,5	0,541
390,9	0,533
391,4	0,525
391,9	0,516
392,3	0,509
392,8	0,502
393,2	0,495
393,7	0,489
394,1	0,483
394,6	0,477
395,1	0,472
395,5	0,466
396	0,46
396,4	0,455
396,9	0,449
397,3	0,443
397,8	0,437
398,2	0,432
398,7	0,427
399,2	0,422
399,6	0,417
400,1	0,412
400,5	0,407
401	0,404
401,4	0,399
401,9	0,395
402,4	0,391
402,8	0,386
403,3	0,381
403,7	0,378
404,2	0,373
404,6	0,368
405,1	0,363
405,5	0,36
406	0,356
406,5	0,354
406,9	0,35
407,4	0,346
407,8	0,342
408,3	0,339
408,7	0,336
409,2	0,333
409,6	0,328
410,1	0,325
410,6	0,323
411	0,321
411,5	0,318
411,9	0,314
412,4	0,311
412,8	0,309
413,3	0,306
413,7	0,303
414,2	0,3
414,7	0,297
415,1	0,295
415,6	0,293
416	0,29
416,5	0,288
416,9	0,285
417,4	0,282
417,8	0,28
418,3	0,277
418,8	0,274
419,2	0,272
419,7	0,27
420,1	0,268
420,6	0,265
421	0,263
421,5	0,261
421,9	0,26
422,4	0,257
422,8	0,254
423,3	0,251
423,8	0,25
424,2	0,248
424,7	0,247
425,1	0,245
425,6	0,243
426	0,242
426,5	0,24
426,9	0,239
427,4	0,236
427,9	0,235
428,3	0,233
428,8	0,231
429,2	0,23
429,7	0,229
430,1	0,226
430,6	0,225
431	0,223
431,5	0,221
431,9	0,219
432,4	0,217
432,8	0,216
433,3	0,215
433,8	0,212
434,2	0,211
434,7	0,21
435,1	0,209
435,6	0,209
436	0,207
436,5	0,205
436,9	0,205
437,4	0,203
437,8	0,201
438,3	0,2
438,8	0,198
439,2	0,198
439,7	0,197
440,1	0,196
440,6	0,194
441	0,193
441,5	0,191
441,9	0,19
442,4	0,189
442,8	0,187
443,3	0,187
443,7	0,186
444,2	0,185
444,7	0,184
445,1	0,183
445,6	0,182
446	0,181
446,5	0,181
446,9	0,181
447,4	0,18
447,8	0,18
448,3	0,178
448,7	0,176
449,2	0,175
449,6	0,174
450,1	0,173
450,6	0,172
451	0,171
451,5	0,17
451,9	0,17
452,4	0,169
452,8	0,168
453,3	0,168
453,7	0,167
454,2	0,166
454,6	0,165
455,1	0,164
455,5	0,163
456	0,162
456,4	0,161
456,9	0,16
457,3	0,159
457,8	0,158
458,3	0,158
458,7	0,157
459,2	0,156
459,6	0,155
460,1	0,154
460,5	0,153
461	0,152
461,4	0,151
461,9	0,15
462,3	0,15
462,8	0,15
463,2	0,148
463,7	0,148
464,1	0,148
464,6	0,147
465	0,147
465,5	0,147
466	0,146
466,4	0,146
466,9	0,144
467,3	0,143
467,8	0,142
468,2	0,141
468,7	0,141
469,1	0,14
469,6	0,139
470	0,14
470,5	0,139
470,9	0,139
471,4	0,138
471,8	0,137
472,3	0,136
472,7	0,136
473,2	0,135
473,6	0,135
474,1	0,134
474,5	0,134
475	0,133
475,4	0,133
475,9	0,132
476,4	0,131
476,8	0,131
477,3	0,13
477,7	0,129
478,2	0,129
478,6	0,129
479,1	0,128
479,5	0,129
480	0,128
480,4	0,127
480,9	0,127
481,3	0,126
481,8	0,124
482,2	0,123
482,7	0,122
483,1	0,121
483,6	0,121
484	0,12
484,5	0,119
484,9	0,12
485,4	0,118
485,8	0,118
486,3	0,121
486,7	0,12
487,2	0,119
487,6	0,118
488,1	0,117
488,5	0,118
489	0,117
489,4	0,112
489,9	0,112
490,4	0,112
490,8	0,113
491,3	0,113
491,7	0,113
492,2	0,114
492,6	0,113
493,1	0,113
493,5	0,112
494	0,111
494,4	0,111
494,9	0,11
495,3	0,11
495,8	0,108
496,2	0,107
496,7	0,107
497,1	0,107
497,6	0,106
498	0,105
498,5	0,105
498,9	0,105
499,4	0,104
499,8	0,104
500,3	0,103
500,7	0,103
501,2	0,102
501,6	0,102
502,1	0,101
502,5	0,101
503	0,1
503,4	0,101
503,9	0,101
504,3	0,101
504,8	0,1
505,2	0,1
505,7	0,098
506,1	0,099
506,6	0,097
507	0,097
507,5	0,096
507,9	0,095
508,4	0,095
508,8	0,095
509,3	0,094
509,7	0,094
510,2	0,093
510,6	0,092
511,1	0,093
511,5	0,092
512	0,091
512,4	0,09
512,9	0,09
513,3	0,09
513,8	0,089
514,2	0,088
514,7	0,088
515,1	0,088
515,6	0,088
516	0,087
516,5	0,087
516,9	0,086
517,4	0,086
517,8	0,085
518,3	0,085
518,7	0,085
519,2	0,085
519,6	0,085
520,1	0,085
520,5	0,084
521	0,084
521,4	0,084
521,9	0,083
522,3	0,082
522,8	0,081
523,2	0,08
523,7	0,08
524,1	0,08
524,6	0,08
525	0,08
525,5	0,08
525,9	0,08
526,4	0,079
526,8	0,079
527,3	0,079
527,7	0,078
528,2	0,078
528,6	0,078
529,1	0,078
529,5	0,078
530	0,077
530,4	0,077
530,9	0,076
531,3	0,076
531,8	0,076
532,2	0,075
532,6	0,075
533,1	0,074
533,5	0,074
534	0,073
534,4	0,073
534,9	0,072
535,3	0,071
535,8	0,071
536,2	0,07
536,7	0,07
537,1	0,07
537,6	0,069
538	0,069
538,5	0,07
538,9	0,069
539,4	0,069
539,8	0,069
540,3	0,069
540,7	0,068
541,2	0,068
541,6	0,068
542,1	0,068
542,5	0,068
543	0,067
543,4	0,067
543,9	0,067
544,3	0,067
544,8	0,067
545,2	0,067
545,7	0,066
546,1	0,066
546,5	0,066
547	0,066
547,4	0,066
547,9	0,065
548,3	0,065
548,8	0,065
549,2	0,065
549,7	0,064
550,1	0,064
550,6	0,064
551	0,062
551,5	0,062
551,9	0,062
552,4	0,061
552,8	0,062
553,3	0,062
553,7	0,062
554,2	0,063
554,6	0,063
555,1	0,063
555,5	0,063
555,9	0,063
556,4	0,062
556,8	0,062
557,3	0,06
557,7	0,061
558,2	0,06
558,6	0,06
559,1	0,06
559,5	0,059
560	0,059
560,4	0,059
560,9	0,058
561,3	0,058
561,8	0,058
562,2	0,057
562,7	0,058
563,1	0,058
563,6	0,058
564	0,059
564,4	0,059
564,9	0,059
565,3	0,059
565,8	0,058
566,2	0,057
566,7	0,057
567,1	0,057
567,6	0,056
568	0,056
568,5	0,056
568,9	0,056
569,4	0,057
569,8	0,057
570,3	0,056
570,7	0,056
571,1	0,056
571,6	0,056
572	0,056
572,5	0,055
572,9	0,055
573,4	0,055
573,8	0,055
574,3	0,056
574,7	0,055
575,2	0,055
575,6	0,055
576,1	0,055
576,5	0,054
576,9	0,054
577,4	0,054
577,8	0,054
578,3	0,054
578,7	0,054
579,2	0,053
579,6	0,054
580,1	0,053
580,5	0,053
581	0,052
581,4	0,053
581,9	0,053
582,3	0,053
582,7	0,052
583,2	0,052
583,6	0,051
584,1	0,052
584,5	0,051
585	0,051
585,4	0,052
585,9	0,052
586,3	0,053
586,8	0,053
587,2	0,052
587,6	0,052
588,1	0,052
588,5	0,052
589	0,052
589,4	0,052
589,9	0,051
590,3	0,051
590,8	0,051
591,2	0,051
591,7	0,05
592,1	0,05
592,5	0,051
593	0,051
593,4	0,05
593,9	0,05
594,3	0,049
594,8	0,049
595,2	0,049
595,7	0,049
596,1	0,048
596,6	0,048
597	0,048
597,4	0,049
597,9	0,049
598,3	0,048
598,8	0,049
599,2	0,048
599,7	0,048
600,1	0,048
600,6	0,048
601	0,048
601,4	0,048
601,9	0,047
602,3	0,047
602,8	0,047
603,2	0,048
603,7	0,047
604,1	0,047
604,6	0,047
605	0,047
605,4	0,048
605,9	0,047
606,3	0,047
606,8	0,047
607,2	0,047
607,7	0,047
608,1	0,047
608,6	0,047
609	0,047
609,4	0,047
609,9	0,047
610,3	0,047
610,8	0,047
611,2	0,047
611,7	0,048
612,1	0,047
612,6	0,047
613	0,046
613,4	0,046
613,9	0,046
614,3	0,046
614,8	0,045
615,2	0,046
615,7	0,046
616,1	0,045
616,6	0,045
617	0,045
617,4	0,045
617,9	0,045
618,3	0,044
618,8	0,044
619,2	0,044
619,7	0,045
620,1	0,045
620,5	0,045
621	0,045
621,4	0,045
621,9	0,045
622,3	0,045
622,8	0,045
623,2	0,044
623,6	0,044
624,1	0,045
624,5	0,044
625	0,043
625,4	0,043
625,9	0,043
626,3	0,043
626,8	0,043
627,2	0,043
627,6	0,043
628,1	0,044
628,5	0,044
629	0,043
629,4	0,043
629,9	0,043
630,3	0,043
630,7	0,042
631,2	0,042
631,6	0,043
632,1	0,042
632,5	0,043
633	0,043
633,4	0,043
633,8	0,043
634,3	0,043
634,7	0,043
635,2	0,043
635,6	0,043
636,1	0,042
636,5	0,042
636,9	0,042
637,4	0,041
637,8	0,041
638,3	0,04
638,7	0,04
639,2	0,04
639,6	0,04
640	0,041
640,5	0,041
640,9	0,041
641,4	0,04
641,8	0,04
642,2	0,04
642,7	0,039
643,1	0,039
643,6	0,039
644	0,039
644,5	0,039
644,9	0,039
645,3	0,039
645,8	0,039
646,2	0,039
646,7	0,039
647,1	0,04
647,6	0,04
648	0,04
648,4	0,04
648,9	0,04
649,3	0,04
649,8	0,04
650,2	0,039
650,6	0,039
651,1	0,039
651,5	0,039
652	0,039
652,4	0,038
652,9	0,038
653,3	0,037
653,7	0,037
654,2	0,036
654,6	0,034
655,1	0,031
655,5	0,024
655,9	0,016
656,4	0,011
656,8	0,013
657,3	0,014
657,7	0,015
658,2	0,015
658,6	0,016
659	0,024
659,5	0,04
659,9	0,047
660,4	0,049
660,8	0,049
661,2	0,047
661,7	0,046
662,1	0,044
662,6	0,043
663	0,041
663,4	0,041
663,9	0,04
664,3	0,04
664,8	0,04
665,2	0,039
665,6	0,039
666,1	0,039
666,5	0,039
667	0,039
667,4	0,038
667,9	0,038
668,3	0,038
668,7	0,038
669,2	0,038
669,6	0,038
670,1	0,037
670,5	0,037
670,9	0,037
671,4	0,037
671,8	0,037
672,3	0,036
672,7	0,037
673,1	0,036
673,6	0,036
674	0,036
674,5	0,036
674,9	0,036
675,3	0,036
675,8	0,036
676,2	0,036
676,7	0,036
677,1	0,036
677,5	0,036
678	0,036
678,4	0,036
678,9	0,036
679,3	0,036
679,7	0,036
680,2	0,036
680,6	0,036
681,1	0,036
681,5	0,037
681,9	0,036
682,4	0,036
682,8	0,035
683,3	0,035
683,7	0,035
684,1	0,035
684,6	0,034
685	0,034
685,5	0,034
685,9	0,034
686,3	0,034
686,8	0,034
687,2	0,034
687,7	0,034
688,1	0,034
688,5	0,034
689	0,034
689,4	0,034
689,9	0,034
690,3	0,034
690,7	0,034
691,2	0,035
691,6	0,035
692	0,034
692,5	0,034
692,9	0,034
693,4	0,034
693,8	0,033
694,2	0,033
694,7	0,033
695,1	0,034
695,6	0,033
696	0,033
696,4	0,034
696,9	0,034
697,3	0,034
697,8	0,033
698,2	0,033
698,6	0,033
699,1	0,033
699,5	0,033
699,9	0,032
700,4	0,032
700,8	0,033
701,3	0,033
701,7	0,033
702,1	0,033
702,6	0,033
703	0,033
703,5	0,033
703,9	0,033
704,3	0,033
704,8	0,033
705,2	0,033
705,6	0,033
706,1	0,033
706,5	0,032
707	0,032
707,4	0,032
707,8	0,032
708,3	0,033
708,7	0,033
709,2	0,033
709,6	0,033
710	0,033
710,5	0,033
710,9	0,032
711,3	0,032
711,8	0,032
712,2	0,032
712,7	0,032
713,1	0,032
713,5	0,032
714	0,032
714,4	0,033
714,8	0,033
715,3	0,033
715,7	0,033
716,2	0,033
716,6	0,033
717	0,033
717,5	0,033
717,9	0,033
718,3	0,033
718,8	0,033
719,2	0,033
719,7	0,033
720,1	0,032
720,5	0,032
721	0,032
721,4	0,032
721,8	0,032
722,3	0,032
722,7	0,032
723,2	0,032
723,6	0,032
724	0,032
724,5	0,031
724,9	0,031
725,3	0,031
725,8	0,031
726,2	0,031
726,7	0,031
727,1	0,032
727,5	0,032
728	0,031
728,4	0,031
728,8	0,031
729,3	0,031
729,7	0,031
730,1	0,031
730,6	0,031
731	0,031
731,5	0,031
731,9	0,031
732,3	0,031
732,8	0,031
733,2	0,03
733,6	0,03
734,1	0,03
734,5	0,03
734,9	0,03
735,4	0,03
735,8	0,03
736,3	0,03
736,7	0,03
737,1	0,03
737,6	0,03
738	0,03
738,4	0,03
738,9	0,031
739,3	0,03
739,7	0,03
740,2	0,03
740,6	0,03
741,1	0,03
741,5	0,029
741,9	0,029
742,4	0,029
742,8	0,029
743,2	0,03
743,7	0,03
744,1	0,03
744,5	0,03
745	0,03
745,4	0,03
745,8	0,03
746,3	0,03
746,7	0,03
747,2	0,03
747,6	0,029
748	0,029
748,5	0,029
748,9	0,028
749,3	0,028
749,8	0,029
750,2	0,028
750,6	0,028
751,1	0,028
751,5	0,028
751,9	0,028
752,4	0,027
752,8	0,027
753,3	0,027
753,7	0,027
754,1	0,027
754,6	0,028
755	0,028
755,4	0,028
755,9	0,028
756,3	0,028
756,7	0,029
757,2	0,029
757,6	0,029
758	0,029
758,5	0,029
758,9	0,029
759,3	0,03
759,8	0,03
760,2	0,03
760,6	0,029
761,1	0,029
761,5	0,029
761,9	0,029
762,4	0,029
762,8	0,029
763,3	0,029
763,7	0,029
764,1	0,029
764,6	0,029
765	0,029
765,4	0,029
765,9	0,028
766,3	0,028
766,7	0,029
767,2	0,029
767,6	0,028
768	0,028
768,5	0,028
768,9	0,027
769,3	0,027
769,8	0,027
770,2	0,026
770,6	0,026
771,1	0,026
771,5	0,026
771,9	0,026
772,4	0,026
772,8	0,026
773,2	0,026
773,7	0,027
774,1	0,026
774,5	0,026
775	0,026
775,4	0,027
775,8	0,027
776,3	0,027
776,7	0,027
777,1	0,027
777,6	0,027
778	0,027
778,4	0,027
778,9	0,027
779,3	0,027
779,7	0,027
780,2	0,027
780,6	0,027
781	0,027
781,5	0,027
781,9	0,027
782,3	0,026
782,8	0,026
783,2	0,026
783,6	0,026
784,1	0,026
784,5	0,026
784,9	0,026
785,4	0,026
785,8	0,027
786,2	0,026
786,7	0,026
787,1	0,026
787,5	0,026
788	0,026
788,4	0,026
788,8	0,025
789,3	0,025
789,7	0,025
790,1	0,026
790,6	0,026
791	0,026
791,4	0,026
791,9	0,026
792,3	0,026
792,7	0,026
793,2	0,025
793,6	0,025
794	0,025
794,5	0,026
794,9	0,026
795,3	0,026
795,8	0,026
796,2	0,026
796,6	0,026
797,1	0,026
797,5	0,026
797,9	0,026
798,4	0,026
798,8	0,026
799,2	0,026
799,7	0,025
800,1	0,025
800,5	0,025
801	0,026
801,4	0,025
801,8	0,025
802,2	0,025
802,7	0,025
803,1	0,025
803,5	0,025
804	0,025
804,4	0,024
804,8	0,024
805,3	0,024
805,7	0,024
806,1	0,024
806,6	0,024
807	0,024
807,4	0,025
807,9	0,024
808,3	0,025
808,7	0,024
809,2	0,024
809,6	0,024
810	0,024
810,4	0,024
810,9	0,024
811,3	0,024
811,7	0,024
812,2	0,024
812,6	0,024
813	0,024
813,5	0,024
813,9	0,024
814,3	0,024
814,8	0,024
815,2	0,024
815,6	0,024
816,1	0,024
816,5	0,024
816,9	0,024
817,3	0,024
817,8	0,025
818,2	0,024
818,6	0,024
819,1	0,024
819,5	0,024
819,9	0,024
820,4	0,024
820,8	0,024
821,2	0,024
821,7	0,024
822,1	0,024
822,5	0,024
822,9	0,024
823,4	0,024
823,8	0,025
824,2	0,025
824,7	0,025
825,1	0,025
825,5	0,024
826	0,025
826,4	0,024
826,8	0,024
827,3	0,024
827,7	0,024
828,1	0,024
828,5	0,024
829	0,023
829,4	0,023
829,8	0,023
830,3	0,023
830,7	0,023
831,1	0,023
831,6	0,023
832	0,023
832,4	0,023
832,8	0,023
833,3	0,023
833,7	0,023
834,1	0,023
834,6	0,023
835	0,023
835,4	0,023
835,8	0,023
836,3	0,023
836,7	0,023
837,1	0,023
837,6	0,023
838	0,024
838,4	0,023
838,9	0,023
839,3	0,023
839,7	0,023
840,1	0,023
840,6	0,023
841	0,022
841,4	0,022
841,9	0,022
842,3	0,022
842,7	0,023
843,1	0,022
843,6	0,022
844	0,022
844,4	0,022
844,9	0,022
845,3	0,022
845,7	0,021
846,2	0,021
846,6	0,021
847	0,021
847,4	0,021
847,9	0,021
848,3	0,021
848,7	0,021
849,2	0,021
849,6	0,022
850	0,022
850,4	0,022
850,9	0,022
851,3	0,022
851,7	0,023
852,2	0,023
852,6	0,022
853	0,022
853,4	0,022
853,9	0,022
854,3	0,022
854,7	0,022
855,2	0,021
855,6	0,022
856	0,022
856,4	0,022
856,9	0,022
857,3	0,022
857,7	0,022
858,2	0,022
858,6	0,022
859	0,022
859,4	0,022
859,9	0,022
860,3	0,022
860,7	0,022
861,1	0,022
861,6	0,022
862	0,022
862,4	0,022
862,9	0,022
863,3	0,022
863,7	0,022
864,1	0,021
864,6	0,021
865	0,021
865,4	0,021
865,9	0,021
866,3	0,021
866,7	0,021
867,1	0,021
867,6	0,021
868	0,021
868,4	0,021
868,8	0,021
869,3	0,021
869,7	0,021
870,1	0,021
870,6	0,021
871	0,021
871,4	0,021
871,8	0,021
872,3	0,021
872,7	0,02
873,1	0,02
873,5	0,019
874	0,019
874,4	0,019
874,8	0,019
875,3	0,019
875,7	0,019
876,1	0,019
876,5	0,019
877	0,019
877,4	0,019
877,8	0,019
878,2	0,019
878,7	0,019
879,1	0,019
879,5	0,019
879,9	0,019
880,4	0,019
880,8	0,019
881,2	0,019
881,7	0,019
882,1	0,019
882,5	0,019
882,9	0,019
883,4	0,019
883,8	0,019
884,2	0,019
884,6	0,019
885,1	0,019
885,5	0,019
885,9	0,019
886,3	0,019
886,8	0,019
887,2	0,018
887,6	0,019
888	0,019
888,5	0,019
888,9	0,019
889,3	0,019
889,8	0,019
890,2	0,02
890,6	0,02
891	0,021
891,5	0,021
891,9	0,021
892,3	0,022
892,7	0,021
893,2	0,021
893,6	0,021
894	0,021
894,4	0,021
894,9	0,021
895,3	0,021
895,7	0,021
896,1	0,021
896,6	0,021
897	0,02
897,4	0,02
897,8	0,02
898,3	0,02
898,7	0,02
899,1	0,02
899,5	0,02
900	0,02
900,4	0,02
900,8	0,02
901,2	0,02
901,7	0,019
902,1	0,019
902,5	0,019
902,9	0,019
903,4	0,02
903,8	0,02
904,2	0,02
904,6	0,02
905,1	0,02
905,5	0,021
905,9	0,021
906,3	0,02
906,8	0,02
907,2	0,02
907,6	0,021
908	0,021
908,5	0,021
908,9	0,022
909,3	0,022
909,7	0,022
910,2	0,022
910,6	0,022
911	0,022
911,4	0,022
911,9	0,022
912,3	0,021
912,7	0,022
913,1	0,022
913,6	0,021
914	0,021
914,4	0,021
914,8	0,021
915,3	0,021
915,7	0,021
916,1	0,021
916,5	0,02
916,9	0,02
917,4	0,02
917,8	0,02
918,2	0,02
918,6	0,02
919,1	0,02
919,5	0,02
919,9	0,02
920,3	0,02
920,8	0,02
921,2	0,02
921,6	0,019
922	0,02
922,5	0,019
922,9	0,019
923,3	0,019
923,7	0,019
924,2	0,019
924,6	0,019
925	0,019
925,4	0,019
925,8	0,02
926,3	0,02
926,7	0,02
927,1	0,019
927,5	0,019
928	0,019
928,4	0,019
928,8	0,019
929,2	0,018
929,7	0,018
930,1	0,019
930,5	0,019
930,9	0,019
931,3	0,019
931,8	0,019
932,2	0,018
932,6	0,018
933	0,018
933,5	0,018
933,9	0,018
934,3	0,018
934,7	0,018
935,2	0,018
935,6	0,018
936	0,019
936,4	0,019
936,8	0,018
937,3	0,018
937,7	0,018
938,1	0,019
938,5	0,018
939	0,018
939,4	0,018
939,8	0,018
940,2	0,019
940,6	0,019
941,1	0,019
941,5	0,019
941,9	0,019
942,3	0,019
942,8	0,019
943,2	0,019
943,6	0,018
944	0,018
944,4	0,018
944,9	0,018
945,3	0,017
945,7	0,017
946,1	0,018
946,6	0,018
947	0,017
947,4	0,017
947,8	0,017
948,2	0,017
948,7	0,017
949,1	0,016
949,5	0,017
949,9	0,016
950,3	0,016
950,8	0,016
951,2	0,017
951,6	0,017
952	0,017
952,5	0,016
952,9	0,016
953,3	0,016
953,7	0,016
954,1	0,015
954,6	0,015
955	0,015
955,4	0,014
955,8	0,014
956,2	0,014
956,7	0,014
957,1	0,015
957,5	0,014
957,9	0,014
958,3	0,014
958,8	0,014
959,2	0,014
959,6	0,013
960	0,012
960,5	0,013
960,9	0,013
961,3	0,013
961,7	0,013
962,1	0,012
962,6	0,013
963	0,013
963,4	0,013
963,8	0,014
964,2	0,013
964,7	0,013
965,1	0,014
965,5	0,014
965,9	0,014
966,3	0,015
966,8	0,015
967,2	0,016
967,6	0,016
968	0,016
968,4	0,016
968,9	0,015
969,3	0,016
969,7	0,016
970,1	0,016
970,5	0,017
971	0,017
971,4	0,017
971,8	0,016
972,2	0,016
972,6	0,015
973,1	0,015
973,5	0,015
973,9	0,015
974,3	0,014
974,7	0,015
975,2	0,015
975,6	0,015
976	0,016
976,4	0,015
976,8	0,015
977,3	0,015
977,7	0,015
978,1	0,015
978,5	0,015
978,9	0,015
979,4	0,015
979,8	0,015
980,2	0,014
980,6	0,014
981	0,014
981,5	0,014
981,9	0,014
982,3	0,014
982,7	0,013
983,1	0,014
983,6	0,014
984	0,014
984,4	0,014
984,8	0,014
985,2	0,013
985,6	0,013
986,1	0,013
986,5	0,013
986,9	0,013
987,3	0,012
987,7	0,013
988,2	0,014
988,6	0,014
989	0,014
989,4	0,014
989,8	0,014
990,3	0,014
990,7	0,013
991,1	0,014
991,5	0,014
991,9	0,014
992,3	0,014
992,8	0,013
993,2	0,013
993,6	0,014
994	0,013
994,4	0,013
994,9	0,013
995,3	0,014
995,7	0,014
996,1	0,014
996,5	0,013
996,9	0,013
997,4	0,013
997,8	0,013
998,2	0,013
998,6	0,013
999	0,014
999,5	0,013
999,9	0,013
1000,3	0,013
1000,7	0,013
1001,1	0,013
1001,5	0,013
1002	0,014
1002,4	0,015
1002,8	0,015
1003,2	0,016
1003,6	0,016
1004	0,016
1004,5	0,016
1004,9	0,016
1005,3	0,016
1005,7	0,016
1006,1	0,016
1006,6	0,016
1007	0,016
1007,4	0,016
1007,8	0,016
1008,2	0,016
1008,6	0,016
1009,1	0,016
1009,5	0,016
1009,9	0,016
1010,3	0,016
1010,7	0,016
1011,1	0,016
1011,6	0,016
1012	0,017
1012,4	0,017
1012,8	0,017
1013,2	0,017
1013,6	0,017
1014,1	0,017
1014,5	0,016
1014,9	0,015
1015,3	0,015
1015,7	0,015
1016,1	0,015
1016,6	0,015
1017	0,015
1017,4	0,015
1017,8	0,015
1018,2	0,016
1018,6	0,015
1019,1	0,015
1019,5	0,016
1019,9	0,016
1020,3	0,016
1020,7	0,016
1021,1	0,016
1021,6	0,016
1022	0,015
1022,4	0,015
1022,8	0,015
1023,2	0,015
1023,6	0,016
1024,1	0,016
1024,5	0,017
1024,9	0,016
1025,3	0,016
1025,7	0,015
1026,1	0,015
1026,6	0,014
1027	0,014
1027,4	0,013
1027,8	0,013
1028,2	0,013
1028,6	0,013
1029	0,013
1029,5	0,014
1029,9	0,013
1030,3	0,013
1030,7	0,013
1031,1	0,013
1031,5	0,013
1032	0,013
1032,4	0,014
1032,8	0,014
1033,2	0,014
1033,6	0,014
1034	0,014
1034,4	0,013
1034,9	0,013
1035,3	0,012
1035,7	0,011
1036,1	0,011
1036,5	0,011
1036,9	0,012
1037,4	0,013
1037,8	0,013
1038,2	0,013
1038,6	0,013
1039	0,014
1039,4	0,014
1039,8	0,014
1040,3	0,013
1040,7	0,013
1041,1	0,013
1041,5	0,014
1041,9	0,013
1042,3	0,012
1042,7	0,012
1043,2	0,013
1043,6	0,013
1044	0,012
1044,4	0,012
1044,8	0,012
1045,2	0,012
1045,6	0,012
1046,1	0,011
1046,5	0,012
1046,9	0,012
1047,3	0,012
1047,7	0,012
1048,1	0,012
1048,5	0,012
1049	0,012
1049,4	0,01
1049,8	0,011
1050,2	0,011
1050,6	0,01
1051	0,011
1051,4	0,011
1051,9	0,011
1052,3	0,012
1052,7	0,012
1053,1	0,012
1053,5	0,013
1053,9	0,013
1054,3	0,013
1054,8	0,014
1055,2	0,014
1055,6	0,013
1056	0,014
1056,4	0,014
1056,8	0,014
1057,2	0,013
1057,6	0,012
1058,1	0,011
1058,5	0,012
1058,9	0,012
1059,3	0,011
1059,7	0,011
1060,1	0,011
1060,5	0,012
1061	0,012
1061,4	0,012
1061,8	0,011
1062,2	0,012
1062,6	0,012
1063	0,012
1063,4	0,012
1063,8	0,012
1064,3	0,012
1064,7	0,012
1065,1	0,011
1065,5	0,01
1065,9	0,011
1066,3	0,011
1066,7	0,011
1067,1	0,011
1067,6	0,012
1068	0,011
1068,4	0,011
1068,8	0,01
1069,2	0,01
1069,6	0,009
1070	0,009
1070,4	0,009
1070,9	0,009
1071,3	0,009
1071,7	0,01
1072,1	0,01
1072,5	0,011
1072,9	0,011
1073,3	0,011
1073,7	0,013
1074,2	0,012
1074,6	0,012
1075	0,01
1075,4	0,01
1075,8	0,011
1076,2	0,011
1076,6	0,011
1077	0,01
1077,5	0,012
1077,9	0,013
1078,3	0,012
1078,7	0,012
1079,1	0,013
1079,5	0,012
1079,9	0,014
1080,3	0,012
1080,7	0,012
1081,2	0,013
1081,6	0,011
1082	0,008
1082,4	0,007
1082,8	0,006
1083,2	0,006
1083,6	0,007
1084	0,004
1084,5	0,005
1084,9	0,006
1085,3	0,005
1085,7	0,005
1086,1	0,005
1086,5	0,003
1086,9	0,006
1087,3	0,007
1087,7	0,007
1088,2	0,006
1088,6	0,004
1089	0,005
1089,4	0,004
1089,8	0,003
1090,2	-0,001
1090,6	0
1091	0
1091,4	0,002
1091,9	0,001
1092,3	0
1092,7	-0,002
1093,1	0,001
1093,5	0,001
1093,9	0,004
1094,3	0,003
1094,7	0,003
1095,1	0,003
1095,5	0,001
1096	0,001
1096,4	0,003
1096,8	0,001
1097,2	-0,002
1097,6	-0,007
1098	-0,008
1098,4	-0,001
1098,8	-0,011
1099,2	-0,02
1099,6	-0,026
1100,1	-0,023
1100,5	-0,02
1100,9	-0,019
1101,3	-0,019
1101,7	-0,018
1102,1	-0,011
1102,5	-0,018
1102,9	-0,028
1103,3	-0,026
1103,7	-0,024
1104,2	-0,034
1104,6	-0,031
1105	-0,04
1105,4	-0,026
1105,8	-0,008
1106,2	-0,014
1106,6	-0,019
1107	-0,038
1107,4	-0,026
1107,8	0,013
1108,3	-0,112
