Data from Absorbance_00015.txt Node
Date: Wed Aug 02 13:48:36 MSK 2023
User: vat
Spectrometer: MAYP114033
Trigger mode: 0
Integration Time (sec): 8,000000E-3
Scans to average: 10
Electric dark correction enabled: true
Nonlinearity correction enabled: false
Boxcar width: 3
XAxis mode: Wavelengths
Number of Pixels in Spectrum: 2068
>>>>>Begin Spectral Data<<<<<
199,4	-0,745
199,9	-0,119
200,4	0,312
200,8	0,679
201,3	0,825
201,8	0,894
202,2	0,93
202,7	0,965
203,2	1,017
203,6	1,052
204,1	1,056
204,6	1,081
205	1,066
205,5	1,086
206	1,08
206,4	1,083
206,9	1,086
207,4	1,118
207,8	1,123
208,3	1,158
208,8	1,158
209,2	1,188
209,7	1,203
210,2	1,218
210,6	1,235
211,1	1,247
211,5	1,262
212	1,281
212,5	1,275
212,9	1,309
213,4	1,322
213,9	1,317
214,3	1,326
214,8	1,32
215,3	1,324
215,7	1,356
216,2	1,361
216,7	1,365
217,1	1,397
217,6	1,413
218,1	1,447
218,5	1,489
219	1,494
219,5	1,491
219,9	1,522
220,4	1,524
220,9	1,553
221,3	1,552
221,8	1,57
222,3	1,593
222,7	1,651
223,2	1,66
223,6	1,667
224,1	1,67
224,6	1,704
225	1,705
225,5	1,714
226	1,7
226,4	1,717
226,9	1,731
227,4	1,753
227,8	1,756
228,3	1,78
228,8	1,813
229,2	1,83
229,7	1,848
230,2	1,876
230,6	1,882
231,1	1,906
231,5	1,898
232	1,89
232,5	1,889
232,9	1,9
233,4	1,904
233,9	1,904
234,3	1,89
234,8	1,901
235,3	1,913
235,7	1,936
236,2	1,927
236,7	1,941
237,1	1,958
237,6	1,996
238,1	2,013
238,5	2,024
239	2,016
239,4	2,03
239,9	2,033
240,4	2,043
240,8	2,043
241,3	2,042
241,8	2,041
242,2	2,052
242,7	2,063
243,2	2,079
243,6	2,078
244,1	2,059
244,6	2,066
245	2,077
245,5	2,093
245,9	2,091
246,4	2,084
246,9	2,088
247,3	2,123
247,8	2,132
248,3	2,13
248,7	2,114
249,2	2,108
249,7	2,118
250,1	2,111
250,6	2,092
251	2,068
251,5	2,075
252	2,079
252,4	2,081
252,9	2,06
253,4	2,068
253,8	2,093
254,3	2,108
254,8	2,111
255,2	2,133
255,7	2,134
256,1	2,161
256,6	2,158
257,1	2,135
257,5	2,133
258	2,139
258,5	2,124
258,9	2,134
259,4	2,118
259,9	2,124
260,3	2,117
260,8	2,125
261,2	2,129
261,7	2,127
262,2	2,119
262,6	2,128
263,1	2,119
263,6	2,133
264	2,133
264,5	2,127
264,9	2,108
265,4	2,116
265,9	2,116
266,3	2,123
266,8	2,122
267,3	2,127
267,7	2,127
268,2	2,15
268,7	2,16
269,1	2,137
269,6	2,138
270	2,139
270,5	2,154
271	2,135
271,4	2,147
271,9	2,137
272,4	2,155
272,8	2,166
273,3	2,165
273,7	2,146
274,2	2,179
274,7	2,153
275,1	2,172
275,6	2,178
276,1	2,166
276,5	2,167
277	2,161
277,4	2,15
277,9	2,156
278,4	2,15
278,8	2,163
279,3	2,174
279,8	2,17
280,2	2,171
280,7	2,165
281,1	2,194
281,6	2,182
282,1	2,18
282,5	2,173
283	2,184
283,4	2,195
283,9	2,179
284,4	2,173
284,8	2,188
285,3	2,18
285,8	2,188
286,2	2,182
286,7	2,176
287,1	2,16
287,6	2,143
288,1	2,118
288,5	2,11
289	2,066
289,5	2,039
289,9	1,985
290,4	1,951
290,8	1,895
291,3	1,842
291,8	1,766
292,2	1,709
292,7	1,647
293,1	1,595
293,6	1,539
294,1	1,484
294,5	1,434
295	1,391
295,5	1,349
295,9	1,309
296,4	1,276
296,8	1,245
297,3	1,218
297,8	1,191
298,2	1,168
298,7	1,148
299,1	1,128
299,6	1,11
300,1	1,096
300,5	1,08
301	1,068
301,5	1,056
301,9	1,045
302,4	1,035
302,8	1,023
303,3	1,013
303,8	1,003
304,2	0,995
304,7	0,984
305,1	0,975
305,6	0,969
306,1	0,96
306,5	0,952
307	0,945
307,4	0,936
307,9	0,928
308,4	0,92
308,8	0,912
309,3	0,903
309,8	0,896
310,2	0,888
310,7	0,881
311,1	0,874
311,6	0,866
312,1	0,859
312,5	0,852
313	0,843
313,4	0,835
313,9	0,827
314,4	0,819
314,8	0,81
315,3	0,801
315,7	0,794
316,2	0,785
316,7	0,778
317,1	0,77
317,6	0,762
318	0,755
318,5	0,747
319	0,739
319,4	0,733
319,9	0,727
320,3	0,719
320,8	0,713
321,3	0,705
321,7	0,699
322,2	0,691
322,6	0,683
323,1	0,675
323,6	0,667
324	0,659
324,5	0,652
324,9	0,645
325,4	0,639
325,9	0,631
326,3	0,624
326,8	0,616
327,2	0,609
327,7	0,601
328,2	0,593
328,6	0,586
329,1	0,579
329,5	0,571
330	0,565
330,5	0,558
330,9	0,55
331,4	0,543
331,8	0,536
332,3	0,529
332,8	0,522
333,2	0,515
333,7	0,508
334,1	0,502
334,6	0,495
335,1	0,488
335,5	0,481
336	0,473
336,4	0,465
336,9	0,459
337,4	0,452
337,8	0,445
338,3	0,437
338,7	0,43
339,2	0,424
339,7	0,417
340,1	0,41
340,6	0,404
341	0,398
341,5	0,391
342	0,386
342,4	0,379
342,9	0,373
343,3	0,368
343,8	0,362
344,2	0,356
344,7	0,35
345,2	0,344
345,6	0,338
346,1	0,332
346,5	0,325
347	0,319
347,5	0,313
347,9	0,308
348,4	0,302
348,8	0,297
349,3	0,291
349,8	0,286
350,2	0,28
350,7	0,275
351,1	0,271
351,6	0,265
352	0,26
352,5	0,256
353	0,251
353,4	0,246
353,9	0,241
354,3	0,236
354,8	0,232
355,3	0,228
355,7	0,223
356,2	0,219
356,6	0,215
357,1	0,211
357,5	0,206
358	0,202
358,5	0,197
358,9	0,193
359,4	0,189
359,8	0,186
360,3	0,182
360,8	0,178
361,2	0,174
361,7	0,172
362,1	0,168
362,6	0,165
363	0,161
363,5	0,158
364	0,155
364,4	0,152
364,9	0,149
365,3	0,146
365,8	0,143
366,3	0,14
366,7	0,136
367,2	0,133
367,6	0,131
368,1	0,128
368,5	0,127
369	0,123
369,5	0,121
369,9	0,12
370,4	0,118
370,8	0,116
371,3	0,113
371,7	0,111
372,2	0,11
372,7	0,108
373,1	0,105
373,6	0,103
374	0,1
374,5	0,099
374,9	0,097
375,4	0,095
375,9	0,094
376,3	0,093
376,8	0,091
377,2	0,09
377,7	0,087
378,2	0,085
378,6	0,084
379,1	0,083
379,5	0,082
380	0,08
380,4	0,079
380,9	0,077
381,4	0,076
381,8	0,074
382,3	0,072
382,7	0,071
383,2	0,07
383,6	0,068
384,1	0,068
384,6	0,066
385	0,066
385,5	0,064
385,9	0,062
386,4	0,061
386,8	0,06
387,3	0,059
387,7	0,058
388,2	0,056
388,7	0,055
389,1	0,053
389,6	0,052
390	0,051
390,5	0,049
390,9	0,047
391,4	0,046
391,9	0,045
392,3	0,043
392,8	0,042
393,2	0,041
393,7	0,04
394,1	0,04
394,6	0,04
395,1	0,04
395,5	0,039
396	0,039
396,4	0,039
396,9	0,038
397,3	0,037
397,8	0,037
398,2	0,036
398,7	0,035
399,2	0,035
399,6	0,034
400,1	0,034
400,5	0,034
401	0,033
401,4	0,032
401,9	0,031
402,4	0,031
402,8	0,03
403,3	0,03
403,7	0,03
404,2	0,029
404,6	0,029
405,1	0,028
405,5	0,028
406	0,027
406,5	0,027
406,9	0,026
407,4	0,027
407,8	0,026
408,3	0,026
408,7	0,026
409,2	0,025
409,6	0,025
410,1	0,024
410,6	0,024
411	0,023
411,5	0,022
411,9	0,022
412,4	0,022
412,8	0,021
413,3	0,021
413,7	0,021
414,2	0,021
414,7	0,021
415,1	0,021
415,6	0,021
416	0,02
416,5	0,02
416,9	0,02
417,4	0,019
417,8	0,018
418,3	0,017
418,8	0,017
419,2	0,017
419,7	0,017
420,1	0,016
420,6	0,016
421	0,016
421,5	0,016
421,9	0,016
422,4	0,015
422,8	0,015
423,3	0,015
423,8	0,015
424,2	0,015
424,7	0,014
425,1	0,014
425,6	0,014
426	0,013
426,5	0,013
426,9	0,012
427,4	0,012
427,9	0,012
428,3	0,013
428,8	0,012
429,2	0,013
429,7	0,013
430,1	0,012
430,6	0,012
431	0,012
431,5	0,011
431,9	0,011
432,4	0,01
432,8	0,01
433,3	0,01
433,8	0,009
434,2	0,009
434,7	0,01
435,1	0,009
435,6	0,009
436	0,008
436,5	0,008
436,9	0,009
437,4	0,008
437,8	0,008
438,3	0,008
438,8	0,008
439,2	0,008
439,7	0,008
440,1	0,008
440,6	0,008
441	0,007
441,5	0,007
441,9	0,006
442,4	0,007
442,8	0,006
443,3	0,006
443,7	0,006
444,2	0,006
444,7	0,006
445,1	0,006
445,6	0,006
446	0,007
446,5	0,007
446,9	0,007
447,4	0,008
447,8	0,008
448,3	0,007
448,7	0,006
449,2	0,006
449,6	0,006
450,1	0,005
450,6	0,004
451	0,005
451,5	0,005
451,9	0,006
452,4	0,005
452,8	0,005
453,3	0,006
453,7	0,007
454,2	0,005
454,6	0,006
455,1	0,005
455,5	0,005
456	0,004
456,4	0,004
456,9	0,003
457,3	0,004
457,8	0,004
458,3	0,004
458,7	0,004
459,2	0,004
459,6	0,004
460,1	0,005
460,5	0,004
461	0,004
461,4	0,004
461,9	0,004
462,3	0,004
462,8	0,004
463,2	0,003
463,7	0,004
464,1	0,003
464,6	0,004
465	0,003
465,5	0,004
466	0,004
466,4	0,003
466,9	0,003
467,3	0,004
467,8	0,003
468,2	0,003
468,7	0,003
469,1	0,003
469,6	0,004
470	0,003
470,5	0,004
470,9	0,004
471,4	0,004
471,8	0,004
472,3	0,004
472,7	0,004
473,2	0,004
473,6	0,003
474,1	0,004
474,5	0,004
475	0,004
475,4	0,004
475,9	0,004
476,4	0,003
476,8	0,004
477,3	0,003
477,7	0,003
478,2	0,003
478,6	0,003
479,1	0,003
479,5	0,004
480	0,004
480,4	0,004
480,9	0,004
481,3	0,004
481,8	0,003
482,2	0,003
482,7	0,003
483,1	0,002
483,6	0,003
484	0,003
484,5	0,003
484,9	0,004
485,4	0,004
485,8	0,004
486,3	0,005
486,7	0,005
487,2	0,004
487,6	0,004
488,1	0,004
488,5	0,004
489	0,004
489,4	0,002
489,9	0,002
490,4	0,003
490,8	0,003
491,3	0,004
491,7	0,004
492,2	0,005
492,6	0,005
493,1	0,004
493,5	0,004
494	0,004
494,4	0,004
494,9	0,004
495,3	0,004
495,8	0,004
496,2	0,004
496,7	0,005
497,1	0,005
497,6	0,005
498	0,006
498,5	0,005
498,9	0,006
499,4	0,005
499,8	0,005
500,3	0,004
500,7	0,004
501,2	0,003
501,6	0,003
502,1	0,003
502,5	0,004
503	0,004
503,4	0,004
503,9	0,005
504,3	0,005
504,8	0,005
505,2	0,006
505,7	0,005
506,1	0,005
506,6	0,004
507	0,004
507,5	0,004
507,9	0,004
508,4	0,004
508,8	0,004
509,3	0,004
509,7	0,004
510,2	0,004
510,6	0,004
511,1	0,004
511,5	0,004
512	0,003
512,4	0,003
512,9	0,003
513,3	0,004
513,8	0,004
514,2	0,004
514,7	0,004
515,1	0,004
515,6	0,005
516	0,004
516,5	0,004
516,9	0,004
517,4	0,003
517,8	0,003
518,3	0,003
518,7	0,003
519,2	0,003
519,6	0,004
520,1	0,005
520,5	0,005
521	0,005
521,4	0,006
521,9	0,006
522,3	0,005
522,8	0,004
523,2	0,005
523,7	0,005
524,1	0,005
524,6	0,004
525	0,005
525,5	0,005
525,9	0,005
526,4	0,005
526,8	0,005
527,3	0,004
527,7	0,004
528,2	0,004
528,6	0,005
529,1	0,005
529,5	0,005
530	0,005
530,4	0,005
530,9	0,004
531,3	0,004
531,8	0,004
532,2	0,004
532,6	0,004
533,1	0,005
533,5	0,005
534	0,005
534,4	0,005
534,9	0,005
535,3	0,004
535,8	0,004
536,2	0,003
536,7	0,003
537,1	0,003
537,6	0,004
538	0,004
538,5	0,004
538,9	0,004
539,4	0,004
539,8	0,004
540,3	0,005
540,7	0,004
541,2	0,004
541,6	0,004
542,1	0,004
542,5	0,004
543	0,004
543,4	0,005
543,9	0,005
544,3	0,005
544,8	0,006
545,2	0,006
545,7	0,007
546,1	0,006
546,5	0,006
547	0,006
547,4	0,006
547,9	0,005
548,3	0,004
548,8	0,004
549,2	0,004
549,7	0,004
550,1	0,004
550,6	0,003
551	0,003
551,5	0,003
551,9	0,003
552,4	0,003
552,8	0,003
553,3	0,004
553,7	0,004
554,2	0,005
554,6	0,005
555,1	0,005
555,5	0,005
555,9	0,005
556,4	0,005
556,8	0,005
557,3	0,004
557,7	0,004
558,2	0,004
558,6	0,005
559,1	0,004
559,5	0,005
560	0,005
560,4	0,004
560,9	0,004
561,3	0,004
561,8	0,004
562,2	0,003
562,7	0,003
563,1	0,004
563,6	0,004
564	0,004
564,4	0,005
564,9	0,005
565,3	0,005
565,8	0,005
566,2	0,005
566,7	0,005
567,1	0,005
567,6	0,005
568	0,005
568,5	0,004
568,9	0,004
569,4	0,005
569,8	0,005
570,3	0,005
570,7	0,005
571,1	0,005
571,6	0,005
572	0,005
572,5	0,004
572,9	0,004
573,4	0,005
573,8	0,004
574,3	0,004
574,7	0,004
575,2	0,004
575,6	0,004
576,1	0,005
576,5	0,004
576,9	0,005
577,4	0,005
577,8	0,005
578,3	0,005
578,7	0,005
579,2	0,005
579,6	0,005
580,1	0,005
580,5	0,005
581	0,004
581,4	0,004
581,9	0,005
582,3	0,005
582,7	0,004
583,2	0,004
583,6	0,004
584,1	0,004
584,5	0,004
585	0,004
585,4	0,004
585,9	0,005
586,3	0,005
586,8	0,005
587,2	0,005
587,6	0,005
588,1	0,005
588,5	0,005
589	0,005
589,4	0,005
589,9	0,005
590,3	0,005
590,8	0,004
591,2	0,004
591,7	0,004
592,1	0,004
592,5	0,005
593	0,005
593,4	0,004
593,9	0,004
594,3	0,004
594,8	0,004
595,2	0,004
595,7	0,003
596,1	0,003
596,6	0,003
597	0,004
597,4	0,004
597,9	0,004
598,3	0,004
598,8	0,004
599,2	0,004
599,7	0,004
600,1	0,003
600,6	0,003
601	0,003
601,4	0,003
601,9	0,003
602,3	0,003
602,8	0,003
603,2	0,004
603,7	0,003
604,1	0,003
604,6	0,004
605	0,004
605,4	0,004
605,9	0,003
606,3	0,003
606,8	0,003
607,2	0,003
607,7	0,003
608,1	0,003
608,6	0,003
609	0,004
609,4	0,004
609,9	0,004
610,3	0,004
610,8	0,004
611,2	0,004
611,7	0,004
612,1	0,004
612,6	0,004
613	0,004
613,4	0,004
613,9	0,004
614,3	0,004
614,8	0,004
615,2	0,004
615,7	0,003
616,1	0,003
616,6	0,003
617	0,003
617,4	0,002
617,9	0,003
618,3	0,003
618,8	0,003
619,2	0,003
619,7	0,003
620,1	0,003
620,5	0,003
621	0,003
621,4	0,003
621,9	0,003
622,3	0,003
622,8	0,003
623,2	0,003
623,6	0,003
624,1	0,003
624,5	0,002
625	0,002
625,4	0,002
625,9	0,002
626,3	0,002
626,8	0,002
627,2	0,003
627,6	0,003
628,1	0,003
628,5	0,003
629	0,003
629,4	0,003
629,9	0,002
630,3	0,003
630,7	0,003
631,2	0,003
631,6	0,003
632,1	0,003
632,5	0,003
633	0,003
633,4	0,003
633,8	0,003
634,3	0,003
634,7	0,003
635,2	0,003
635,6	0,003
636,1	0,002
636,5	0,002
636,9	0,002
637,4	0,002
637,8	0,002
638,3	0,002
638,7	0,002
639,2	0,001
639,6	0,001
640	0,001
640,5	0,001
640,9	0,001
641,4	0,001
641,8	0,001
642,2	0,001
642,7	0,001
643,1	0,001
643,6	0,001
644	0,001
644,5	0,001
644,9	0,001
645,3	0,002
645,8	0,001
646,2	0,002
646,7	0,001
647,1	0,001
647,6	0,001
648	0,001
648,4	0,001
648,9	0,002
649,3	0,001
649,8	0,002
650,2	0,001
650,6	0,002
651,1	0,001
651,5	0,001
652	0,001
652,4	0,001
652,9	0,001
653,3	0,001
653,7	0
654,2	-0
654,6	-0,002
655,1	-0,004
655,5	-0,003
655,9	-0,002
656,4	-0,001
656,8	-0,002
657,3	-0,002
657,7	-0,001
658,2	-0
658,6	-0
659	0
659,5	0,001
659,9	0,006
660,4	0,007
660,8	0,007
661,2	0,006
661,7	0,005
662,1	0,004
662,6	0,003
663	0,002
663,4	0,002
663,9	0,002
664,3	0,002
664,8	0,002
665,2	0,001
665,6	0,001
666,1	0,001
666,5	0,001
667	0,001
667,4	0,001
667,9	0,001
668,3	0,001
668,7	0,001
669,2	0,001
669,6	0,001
670,1	0,001
670,5	0,001
670,9	0,001
671,4	0,001
671,8	0,001
672,3	0,001
672,7	0,001
673,1	0
673,6	0
674	0
674,5	-0
674,9	0
675,3	0
675,8	0
676,2	0
676,7	0
677,1	0
677,5	0
678	0
678,4	0,001
678,9	0,001
679,3	0,001
679,7	0,001
680,2	0,001
680,6	0
681,1	0
681,5	0
681,9	-0
682,4	-0
682,8	-0,001
683,3	-0
683,7	-0
684,1	-0,001
684,6	-0
685	0
685,5	-0
685,9	0
686,3	-0
686,8	0
687,2	0
687,7	-0
688,1	-0
688,5	-0,001
689	-0,001
689,4	-0
689,9	-0,001
690,3	-0
690,7	0
691,2	0
691,6	0,001
692	0,001
692,5	0
692,9	0
693,4	0
693,8	-0
694,2	-0
694,7	-0
695,1	0
695,6	-0
696	-0
696,4	-0
696,9	0
697,3	0
697,8	0
698,2	-0
698,6	-0
699,1	-0
699,5	-0
699,9	-0,001
700,4	-0
700,8	-0
701,3	-0
701,7	-0
702,1	-0
702,6	0
703	0
703,5	0
703,9	0
704,3	0
704,8	-0
705,2	-0
705,6	-0
706,1	-0,001
706,5	-0,001
707	-0,001
707,4	-0,001
707,8	-0,001
708,3	-0,001
708,7	-0,001
709,2	-0
709,6	-0
710	0
710,5	0
710,9	0,001
711,3	0
711,8	0
712,2	0
712,7	-0
713,1	-0
713,5	-0
714	-0
714,4	0
714,8	0,001
715,3	0
715,7	0,001
716,2	0,001
716,6	0,001
717	0,001
717,5	0
717,9	0
718,3	0
718,8	0
719,2	0
719,7	-0
720,1	-0
720,5	-0
721	-0,001
721,4	-0,001
721,8	-0,001
722,3	-0,001
722,7	-0,001
723,2	-0
723,6	-0
724	-0
724,5	0
724,9	0
725,3	0
725,8	0
726,2	0,001
726,7	0,001
727,1	0,001
727,5	0,001
728	0,001
728,4	0,001
728,8	0,001
729,3	0,001
729,7	0,001
730,1	0
730,6	0
731	0
731,5	-0
731,9	-0
732,3	-0
732,8	-0,001
733,2	-0,001
733,6	-0,001
734,1	-0,001
734,5	-0,001
734,9	-0,001
735,4	-0,001
735,8	-0,001
736,3	-0,001
736,7	-0,001
737,1	-0,001
737,6	-0,001
738	-0
738,4	-0
738,9	0
739,3	0
739,7	0
740,2	0
740,6	0
741,1	-0
741,5	-0
741,9	-0
742,4	-0
742,8	-0
743,2	0
743,7	-0
744,1	0
744,5	0
745	0
745,4	0
745,8	0
746,3	0
746,7	0
747,2	0
747,6	0
748	-0
748,5	-0
748,9	-0
749,3	-0
749,8	-0
750,2	-0,001
750,6	-0,001
751,1	-0,001
751,5	-0,002
751,9	-0,002
752,4	-0,002
752,8	-0,002
753,3	-0,002
753,7	-0,001
754,1	-0,002
754,6	-0,001
755	-0,001
755,4	-0,001
755,9	-0
756,3	-0
756,7	0
757,2	0,001
757,6	0,001
758	0
758,5	0,001
758,9	0,001
759,3	0,001
759,8	0,001
760,2	0,001
760,6	0
761,1	0
761,5	0
761,9	-0
762,4	-0
762,8	-0
763,3	-0,001
763,7	-0,001
764,1	-0,001
764,6	-0,001
765	-0
765,4	-0,001
765,9	-0,001
766,3	-0,001
766,7	-0,001
767,2	-0,001
767,6	-0,001
768	-0,001
768,5	-0,001
768,9	-0,001
769,3	-0,001
769,8	-0,001
770,2	-0,001
770,6	-0,001
771,1	-0,001
771,5	-0,002
771,9	-0,002
772,4	-0,001
772,8	-0,001
773,2	-0,001
773,7	-0,002
774,1	-0,002
774,5	-0,002
775	-0,002
775,4	-0,002
775,8	-0,001
776,3	-0,001
776,7	-0,001
777,1	-0,001
777,6	-0,001
778	-0,001
778,4	-0,001
778,9	-0,001
779,3	-0,001
779,7	-0,001
780,2	-0,001
780,6	-0,001
781	-0,001
781,5	-0,001
781,9	-0,001
782,3	-0,001
782,8	-0,002
783,2	-0,001
783,6	-0,002
784,1	-0,002
784,5	-0,001
784,9	-0,001
785,4	-0,001
785,8	-0,001
786,2	-0,001
786,7	-0,001
787,1	-0
787,5	-0,001
788	-0,001
788,4	-0,001
788,8	-0,001
789,3	-0,001
789,7	-0,001
790,1	-0
790,6	0
791	-0
791,4	-0
791,9	-0
792,3	-0
792,7	-0,001
793,2	-0,001
793,6	-0,001
794	-0,001
794,5	-0,001
794,9	-0,001
795,3	-0,001
795,8	-0,001
796,2	-0,001
796,6	-0,001
797,1	-0,001
797,5	-0,001
797,9	-0
798,4	0
798,8	0,001
799,2	0,001
799,7	0
800,1	0
800,5	0,001
801	0,001
801,4	0
801,8	0
802,2	-0
802,7	0
803,1	-0
803,5	-0
804	-0
804,4	-0
804,8	-0
805,3	-0
805,7	-0
806,1	-0
806,6	-0,001
807	-0
807,4	-0
807,9	-0
808,3	-0
808,7	-0
809,2	-0
809,6	-0
810	-0
810,4	-0
810,9	-0
811,3	-0
811,7	-0
812,2	-0
812,6	-0
813	-0,001
813,5	-0,001
813,9	-0,001
814,3	-0,001
814,8	-0,001
815,2	-0,001
815,6	-0,001
816,1	-0,001
816,5	-0,001
816,9	-0,001
817,3	-0,001
817,8	-0
818,2	-0
818,6	-0
819,1	-0
819,5	-0,001
819,9	-0
820,4	-0
820,8	-0,001
821,2	-0,001
821,7	-0,001
822,1	-0,001
822,5	-0
822,9	-0
823,4	-0,001
823,8	-0
824,2	0
824,7	0,001
825,1	0
825,5	0
826	0
826,4	0
826,8	0
827,3	-0
827,7	-0,001
828,1	-0,001
828,5	-0,001
829	-0,001
829,4	-0,001
829,8	-0,001
830,3	-0,001
830,7	-0,001
831,1	-0,001
831,6	-0,001
832	-0,001
832,4	-0,002
832,8	-0,001
833,3	-0,001
833,7	-0,001
834,1	-0,002
834,6	-0,002
835	-0,001
835,4	-0,001
835,8	-0,001
836,3	-0,001
836,7	-0,001
837,1	-0,001
837,6	-0,001
838	-0,001
838,4	-0,001
838,9	-0,001
839,3	-0,001
839,7	-0,001
840,1	-0,001
840,6	-0,001
841	-0,001
841,4	-0,001
841,9	-0,001
842,3	-0,001
842,7	-0,001
843,1	-0,001
843,6	-0,001
844	-0,001
844,4	-0,001
844,9	-0,001
845,3	-0,001
845,7	-0,002
846,2	-0,002
846,6	-0,002
847	-0,002
847,4	-0,002
847,9	-0,001
848,3	-0,001
848,7	-0,001
849,2	-0,001
849,6	-0,001
850	-0,001
850,4	-0,001
850,9	-0,001
851,3	-0,001
851,7	-0,001
852,2	-0,001
852,6	-0,001
853	-0,001
853,4	-0,001
853,9	-0,001
854,3	-0,001
854,7	-0,001
855,2	-0,001
855,6	-0,001
856	-0,001
856,4	-0,001
856,9	-0,001
857,3	-0,001
857,7	-0,002
858,2	-0,002
858,6	-0,002
859	-0,002
859,4	-0,002
859,9	-0,002
860,3	-0,002
860,7	-0,001
861,1	-0,001
861,6	-0,001
862	-0,001
862,4	-0,001
862,9	-0
863,3	-0,001
863,7	-0
864,1	-0,001
864,6	-0,001
865	-0,001
865,4	-0,001
865,9	-0,001
866,3	-0,001
866,7	-0,001
867,1	-0,001
867,6	-0
868	-0,001
868,4	-0,001
868,8	-0,001
869,3	-0,001
869,7	-0,001
870,1	-0,001
870,6	-0,001
871	-0,002
871,4	-0,002
871,8	-0,002
872,3	-0,002
872,7	-0,003
873,1	-0,003
873,5	-0,004
874	-0,004
874,4	-0,003
874,8	-0,004
875,3	-0,003
875,7	-0,003
876,1	-0,003
876,5	-0,003
877	-0,003
877,4	-0,003
877,8	-0,003
878,2	-0,003
878,7	-0,003
879,1	-0,003
879,5	-0,003
879,9	-0,003
880,4	-0,003
880,8	-0,003
881,2	-0,002
881,7	-0,002
882,1	-0,002
882,5	-0,002
882,9	-0,002
883,4	-0,002
883,8	-0,003
884,2	-0,002
884,6	-0,002
885,1	-0,003
885,5	-0,003
885,9	-0,002
886,3	-0,002
886,8	-0,002
887,2	-0,002
887,6	-0,002
888	-0,002
888,5	-0,002
888,9	-0,002
889,3	-0,001
889,8	-0,001
890,2	-0,001
890,6	-0,001
891	-0,001
891,5	-0
891,9	0
892,3	0
892,7	0
893,2	0
893,6	0
894	-0
894,4	-0
894,9	-0
895,3	-0,001
895,7	-0,001
896,1	-0,002
896,6	-0,002
897	-0,002
897,4	-0,002
897,8	-0,002
898,3	-0,001
898,7	-0,001
899,1	-0
899,5	-0,001
900	-0
900,4	-0
900,8	-0
901,2	-0,001
901,7	-0,001
902,1	-0,001
902,5	-0,001
902,9	-0,002
903,4	-0,001
903,8	-0,002
904,2	-0,002
904,6	-0,002
905,1	-0,001
905,5	-0,001
905,9	-0,001
906,3	-0,001
906,8	-0
907,2	-0
907,6	0
908	0
908,5	0
908,9	0,001
909,3	0
909,7	0,001
910,2	0,001
910,6	0,001
911	0
911,4	0
911,9	0
912,3	0,001
912,7	0,001
913,1	0,001
913,6	0,001
914	0,002
914,4	0,001
914,8	0,001
915,3	0,001
915,7	0,001
916,1	0,001
916,5	0
916,9	0
917,4	0
917,8	0
918,2	-0
918,6	-0
919,1	-0,001
919,5	-0,001
919,9	-0,001
920,3	-0
920,8	-0,001
921,2	-0,001
921,6	-0,001
922	-0
922,5	-0
922,9	-0
923,3	-0,001
923,7	-0
924,2	-0
924,6	-0
925	-0
925,4	-0
925,8	-0
926,3	-0,001
926,7	-0,001
927,1	-0,001
927,5	-0,001
928	-0,001
928,4	-0,001
928,8	-0,001
929,2	-0
929,7	-0,001
930,1	-0,001
930,5	-0,001
930,9	-0,002
931,3	-0,002
931,8	-0,002
932,2	-0,002
932,6	-0,002
933	-0,002
933,5	-0,001
933,9	-0,001
934,3	-0,001
934,7	-0,001
935,2	-0,001
935,6	-0,002
936	-0,002
936,4	-0,002
936,8	-0,002
937,3	-0,001
937,7	-0,001
938,1	-0,001
938,5	-0,001
939	-0,002
939,4	-0,002
939,8	-0,002
940,2	-0,002
940,6	-0,001
941,1	-0,001
941,5	-0,001
941,9	-0
942,3	-0,001
942,8	-0,001
943,2	-0,001
943,6	-0,002
944	-0,002
944,4	-0,001
944,9	-0,002
945,3	-0,002
945,7	-0,002
946,1	-0,002
946,6	-0,001
947	-0,002
947,4	-0,002
947,8	-0,002
948,2	-0,002
948,7	-0,002
949,1	-0,003
949,5	-0,003
949,9	-0,003
950,3	-0,003
950,8	-0,003
951,2	-0,003
951,6	-0,002
952	-0,002
952,5	-0,003
952,9	-0,002
953,3	-0,002
953,7	-0,003
954,1	-0,003
954,6	-0,003
955	-0,003
955,4	-0,003
955,8	-0,004
956,2	-0,003
956,7	-0,004
957,1	-0,004
957,5	-0,004
957,9	-0,005
958,3	-0,005
958,8	-0,005
959,2	-0,006
959,6	-0,006
960	-0,007
960,5	-0,007
960,9	-0,007
961,3	-0,007
961,7	-0,007
962,1	-0,006
962,6	-0,006
963	-0,006
963,4	-0,006
963,8	-0,005
964,2	-0,006
964,7	-0,005
965,1	-0,005
965,5	-0,005
965,9	-0,004
966,3	-0,004
966,8	-0,004
967,2	-0,004
967,6	-0,004
968	-0,003
968,4	-0,003
968,9	-0,003
969,3	-0,003
969,7	-0,003
970,1	-0,002
970,5	-0,001
971	-0,001
971,4	-0,002
971,8	-0,002
972,2	-0,002
972,6	-0,003
973,1	-0,003
973,5	-0,004
973,9	-0,004
974,3	-0,004
974,7	-0,004
975,2	-0,004
975,6	-0,004
976	-0,004
976,4	-0,004
976,8	-0,004
977,3	-0,004
977,7	-0,004
978,1	-0,004
978,5	-0,004
978,9	-0,004
979,4	-0,004
979,8	-0,004
980,2	-0,004
980,6	-0,005
981	-0,005
981,5	-0,005
981,9	-0,005
982,3	-0,005
982,7	-0,005
983,1	-0,005
983,6	-0,004
984	-0,004
984,4	-0,003
984,8	-0,004
985,2	-0,005
985,6	-0,004
986,1	-0,004
986,5	-0,004
986,9	-0,004
987,3	-0,005
987,7	-0,004
988,2	-0,004
988,6	-0,004
989	-0,004
989,4	-0,004
989,8	-0,003
990,3	-0,003
990,7	-0,003
991,1	-0,003
991,5	-0,002
991,9	-0,002
992,3	-0,002
992,8	-0,003
993,2	-0,003
993,6	-0,003
994	-0,003
994,4	-0,004
994,9	-0,004
995,3	-0,004
995,7	-0,003
996,1	-0,003
996,5	-0,004
996,9	-0,003
997,4	-0,004
997,8	-0,003
998,2	-0,003
998,6	-0,004
999	-0,004
999,5	-0,004
999,9	-0,004
1000,3	-0,004
1000,7	-0,004
1001,1	-0,003
1001,5	-0,003
1002	-0,002
1002,4	-0,001
1002,8	-0,001
1003,2	-0,001
1003,6	-0,001
1004	-0
1004,5	-0
1004,9	-0,001
1005,3	-0,002
1005,7	-0,001
1006,1	-0,001
1006,6	-0,001
1007	-0,002
1007,4	-0,001
1007,8	-0,001
1008,2	-0
1008,6	-0,001
1009,1	-0,001
1009,5	-0,001
1009,9	-0,001
1010,3	-0,001
1010,7	-0,001
1011,1	-0,001
1011,6	-0
1012	-0
1012,4	-0
1012,8	0,001
1013,2	0,001
1013,6	0,001
1014,1	-0
1014,5	-0
1014,9	-0,001
1015,3	-0,002
1015,7	-0,002
1016,1	-0,002
1016,6	-0,002
1017	-0,002
1017,4	-0,002
1017,8	-0,001
1018,2	-0,001
1018,6	-0,001
1019,1	-0,001
1019,5	-0,001
1019,9	-0,001
1020,3	-0
1020,7	0
1021,1	-0
1021,6	-0
1022	-0
1022,4	-0
1022,8	0
1023,2	0
1023,6	0,001
1024,1	0,001
1024,5	0,001
1024,9	0,001
1025,3	0
1025,7	-0,001
1026,1	-0,002
1026,6	-0,002
1027	-0,003
1027,4	-0,003
1027,8	-0,003
1028,2	-0,002
1028,6	-0,002
1029	-0,002
1029,5	-0,001
1029,9	-0,001
1030,3	-0,001
1030,7	-0,001
1031,1	-0,002
1031,5	-0,002
1032	-0,002
1032,4	-0,001
1032,8	-0,001
1033,2	-0,001
1033,6	-0,001
1034	-0,001
1034,4	-0,002
1034,9	-0,001
1035,3	-0,003
1035,7	-0,003
1036,1	-0,003
1036,5	-0,004
1036,9	-0,004
1037,4	-0,002
1037,8	-0,002
1038,2	-0,002
1038,6	-0,001
1039	-0,002
1039,4	-0,001
1039,8	-0,001
1040,3	-0,002
1040,7	-0,002
1041,1	-0,001
1041,5	-0,001
1041,9	-0,001
1042,3	-0,001
1042,7	-0
1043,2	0
1043,6	-0
1044	-0,001
1044,4	-0,002
1044,8	-0,002
1045,2	-0,002
1045,6	-0,003
1046,1	-0,003
1046,5	-0,003
1046,9	-0,003
1047,3	-0,002
1047,7	-0,002
1048,1	-0,002
1048,5	-0,003
1049	-0,003
1049,4	-0,004
1049,8	-0,004
1050,2	-0,004
1050,6	-0,005
1051	-0,004
1051,4	-0,003
1051,9	-0,004
1052,3	-0,004
1052,7	-0,004
1053,1	-0,003
1053,5	-0,003
1053,9	-0,003
1054,3	-0,003
1054,8	-0,002
1055,2	-0,002
1055,6	-0,002
1056	-0,001
1056,4	-0,001
1056,8	-0,001
1057,2	-0,001
1057,6	-0,001
1058,1	-0,001
1058,5	-0,001
1058,9	-0
1059,3	-0
1059,7	0
1060,1	-0
1060,5	0
1061	0,001
1061,4	-0
1061,8	-0,002
1062,2	-0,001
1062,6	-0,002
1063	-0,001
1063,4	-0,001
1063,8	-0,001
1064,3	-0,001
1064,7	-0,001
1065,1	-0,002
1065,5	-0,002
1065,9	-0,003
1066,3	-0,004
1066,7	-0,004
1067,1	-0,004
1067,6	-0,004
1068	-0,004
1068,4	-0,003
1068,8	-0,003
1069,2	-0,004
1069,6	-0,004
1070	-0,003
1070,4	-0,003
1070,9	-0,004
1071,3	-0,004
1071,7	-0,003
1072,1	-0,003
1072,5	-0,002
1072,9	-0,002
1073,3	-0,002
1073,7	-0,002
1074,2	-0,002
1074,6	-0,003
1075	-0,003
1075,4	-0,003
1075,8	-0,005
1076,2	-0,005
1076,6	-0,005
1077	-0,006
1077,5	-0,005
1077,9	-0,005
1078,3	-0,005
1078,7	-0,005
1079,1	-0,005
1079,5	-0,006
1079,9	-0,004
1080,3	-0,005
1080,7	-0,004
1081,2	-0,004
1081,6	-0,003
1082	-0,005
1082,4	-0,005
1082,8	-0,006
1083,2	-0,005
1083,6	-0,006
1084	-0,007
1084,5	-0,007
1084,9	-0,006
1085,3	-0,007
1085,7	-0,007
1086,1	-0,007
1086,5	-0,005
1086,9	-0,004
1087,3	-0,003
1087,7	-0,003
1088,2	-0,003
1088,6	-0,004
1089	-0,003
1089,4	-0,005
1089,8	-0,006
1090,2	-0,01
1090,6	-0,007
1091	-0,005
1091,4	-0,006
1091,9	-0,007
1092,3	-0,006
1092,7	-0,009
1093,1	-0,004
1093,5	-0,007
1093,9	-0,01
1094,3	-0,01
1094,7	-0,012
1095,1	-0,012
1095,5	-0,012
1096	-0,012
1096,4	-0,008
1096,8	-0,007
1097,2	-0,011
1097,6	-0,011
1098	-0,011
1098,4	-0,006
1098,8	-0,014
1099,2	-0,025
1099,6	-0,022
1100,1	-0,023
1100,5	-0,026
1100,9	-0,027
1101,3	-0,026
1101,7	-0,026
1102,1	-0,025
1102,5	-0,031
1102,9	-0,031
1103,3	-0,032
1103,7	-0,038
1104,2	-0,054
1104,6	-0,047
1105	-0,052
1105,4	-0,046
1105,8	-0,033
1106,2	-0,028
1106,6	-0,028
1107	-0,02
1107,4	-0,024
1107,8	0,035
1108,3	-0,201
