Data from Absorbance_00006.txt Node
Date: Wed Aug 02 13:27:44 MSK 2023
User: vat
Spectrometer: MAYP114033
Trigger mode: 0
Integration Time (sec): 8,000000E-3
Scans to average: 10
Electric dark correction enabled: true
Nonlinearity correction enabled: false
Boxcar width: 3
XAxis mode: Wavelengths
Number of Pixels in Spectrum: 2068
>>>>>Begin Spectral Data<<<<<
199,4	-0,853
199,9	-0,204
200,4	0,225
200,8	0,616
201,3	0,826
201,8	0,93
202,2	0,96
202,7	0,981
203,2	1,058
203,6	1,08
204,1	1,102
204,6	1,113
205	1,115
205,5	1,136
206	1,146
206,4	1,131
206,9	1,154
207,4	1,162
207,8	1,187
208,3	1,204
208,8	1,205
209,2	1,227
209,7	1,253
210,2	1,268
210,6	1,286
211,1	1,27
211,5	1,285
212	1,317
212,5	1,326
212,9	1,353
213,4	1,383
213,9	1,405
214,3	1,439
214,8	1,434
215,3	1,421
215,7	1,446
216,2	1,455
216,7	1,441
217,1	1,465
217,6	1,47
218,1	1,506
218,5	1,537
219	1,544
219,5	1,558
219,9	1,593
220,4	1,593
220,9	1,624
221,3	1,623
221,8	1,644
222,3	1,671
222,7	1,709
223,2	1,733
223,6	1,752
224,1	1,761
224,6	1,778
225	1,799
225,5	1,812
226	1,807
226,4	1,821
226,9	1,841
227,4	1,857
227,8	1,858
228,3	1,868
228,8	1,884
229,2	1,897
229,7	1,908
230,2	1,938
230,6	1,951
231,1	1,981
231,5	1,985
232	1,97
232,5	1,976
232,9	1,968
233,4	1,961
233,9	1,954
234,3	1,958
234,8	1,959
235,3	1,976
235,7	1,991
236,2	2,005
236,7	2,023
237,1	2,027
237,6	2,051
238,1	2,08
238,5	2,098
239	2,103
239,4	2,11
239,9	2,087
240,4	2,101
240,8	2,1
241,3	2,086
241,8	2,087
242,2	2,094
242,7	2,101
243,2	2,137
243,6	2,153
244,1	2,143
244,6	2,167
245	2,169
245,5	2,172
245,9	2,167
246,4	2,161
246,9	2,154
247,3	2,173
247,8	2,182
248,3	2,186
248,7	2,159
249,2	2,164
249,7	2,169
250,1	2,177
250,6	2,177
251	2,158
251,5	2,143
252	2,169
252,4	2,163
252,9	2,164
253,4	2,16
253,8	2,18
254,3	2,189
254,8	2,193
255,2	2,208
255,7	2,204
256,1	2,206
256,6	2,216
257,1	2,194
257,5	2,182
258	2,202
258,5	2,173
258,9	2,197
259,4	2,189
259,9	2,188
260,3	2,181
260,8	2,206
261,2	2,192
261,7	2,207
262,2	2,192
262,6	2,198
263,1	2,187
263,6	2,208
264	2,186
264,5	2,19
264,9	2,171
265,4	2,18
265,9	2,172
266,3	2,17
266,8	2,18
267,3	2,184
267,7	2,187
268,2	2,225
268,7	2,229
269,1	2,221
269,6	2,232
270	2,197
270,5	2,219
271	2,204
271,4	2,197
271,9	2,195
272,4	2,185
272,8	2,199
273,3	2,202
273,7	2,188
274,2	2,233
274,7	2,205
275,1	2,229
275,6	2,261
276,1	2,255
276,5	2,279
277	2,266
277,4	2,264
277,9	2,278
278,4	2,265
278,8	2,273
279,3	2,26
279,8	2,268
280,2	2,268
280,7	2,234
281,1	2,25
281,6	2,236
282,1	2,228
282,5	2,228
283	2,222
283,4	2,229
283,9	2,243
284,4	2,237
284,8	2,229
285,3	2,239
285,8	2,23
286,2	2,194
286,7	2,172
287,1	2,133
287,6	2,093
288,1	2,061
288,5	2,015
289	1,962
289,5	1,916
289,9	1,864
290,4	1,821
290,8	1,779
291,3	1,737
291,8	1,694
292,2	1,662
292,7	1,636
293,1	1,612
293,6	1,587
294,1	1,563
294,5	1,541
295	1,525
295,5	1,507
295,9	1,491
296,4	1,481
296,8	1,468
297,3	1,46
297,8	1,45
298,2	1,439
298,7	1,432
299,1	1,42
299,6	1,409
300,1	1,401
300,5	1,389
301	1,384
301,5	1,377
301,9	1,368
302,4	1,359
302,8	1,35
303,3	1,343
303,8	1,339
304,2	1,329
304,7	1,317
305,1	1,312
305,6	1,306
306,1	1,301
306,5	1,293
307	1,281
307,4	1,272
307,9	1,268
308,4	1,258
308,8	1,25
309,3	1,239
309,8	1,231
310,2	1,223
310,7	1,214
311,1	1,203
311,6	1,195
312,1	1,187
312,5	1,179
313	1,166
313,4	1,157
313,9	1,148
314,4	1,138
314,8	1,126
315,3	1,114
315,7	1,102
316,2	1,094
316,7	1,085
317,1	1,074
317,6	1,064
318	1,054
318,5	1,044
319	1,035
319,4	1,025
319,9	1,014
320,3	1,004
320,8	0,994
321,3	0,984
321,7	0,975
322,2	0,963
322,6	0,952
323,1	0,941
323,6	0,931
324	0,921
324,5	0,911
324,9	0,9
325,4	0,89
325,9	0,879
326,3	0,868
326,8	0,857
327,2	0,845
327,7	0,834
328,2	0,823
328,6	0,812
329,1	0,801
329,5	0,791
330	0,781
330,5	0,771
330,9	0,76
331,4	0,75
331,8	0,74
332,3	0,731
332,8	0,721
333,2	0,71
333,7	0,7
334,1	0,691
334,6	0,681
335,1	0,671
335,5	0,661
336	0,651
336,4	0,641
336,9	0,632
337,4	0,621
337,8	0,61
338,3	0,599
338,7	0,59
339,2	0,579
339,7	0,57
340,1	0,56
340,6	0,551
341	0,542
341,5	0,533
342	0,525
342,4	0,516
342,9	0,508
343,3	0,5
343,8	0,492
344,2	0,484
344,7	0,476
345,2	0,467
345,6	0,459
346,1	0,451
346,5	0,442
347	0,435
347,5	0,428
347,9	0,421
348,4	0,413
348,8	0,406
349,3	0,398
349,8	0,391
350,2	0,384
350,7	0,377
351,1	0,37
351,6	0,364
352	0,357
352,5	0,35
353	0,344
353,4	0,337
353,9	0,33
354,3	0,323
354,8	0,317
355,3	0,312
355,7	0,306
356,2	0,302
356,6	0,297
357,1	0,291
357,5	0,286
358	0,281
358,5	0,276
358,9	0,27
359,4	0,265
359,8	0,26
360,3	0,255
360,8	0,25
361,2	0,246
361,7	0,241
362,1	0,237
362,6	0,233
363	0,229
363,5	0,225
364	0,221
364,4	0,216
364,9	0,212
365,3	0,208
365,8	0,204
366,3	0,199
366,7	0,196
367,2	0,192
367,6	0,19
368,1	0,186
368,5	0,184
369	0,181
369,5	0,178
369,9	0,175
370,4	0,172
370,8	0,169
371,3	0,167
371,7	0,164
372,2	0,161
372,7	0,158
373,1	0,155
373,6	0,152
374	0,149
374,5	0,147
374,9	0,145
375,4	0,142
375,9	0,14
376,3	0,137
376,8	0,135
377,2	0,134
377,7	0,131
378,2	0,128
378,6	0,126
379,1	0,124
379,5	0,123
380	0,121
380,4	0,119
380,9	0,117
381,4	0,116
381,8	0,114
382,3	0,112
382,7	0,11
383,2	0,108
383,6	0,107
384,1	0,105
384,6	0,104
385	0,103
385,5	0,102
385,9	0,1
386,4	0,098
386,8	0,097
387,3	0,096
387,7	0,094
388,2	0,093
388,7	0,091
389,1	0,091
389,6	0,089
390	0,088
390,5	0,087
390,9	0,085
391,4	0,083
391,9	0,081
392,3	0,079
392,8	0,078
393,2	0,077
393,7	0,076
394,1	0,075
394,6	0,074
395,1	0,073
395,5	0,073
396	0,072
396,4	0,071
396,9	0,07
397,3	0,069
397,8	0,068
398,2	0,067
398,7	0,066
399,2	0,064
399,6	0,063
400,1	0,063
400,5	0,062
401	0,061
401,4	0,06
401,9	0,059
402,4	0,058
402,8	0,058
403,3	0,057
403,7	0,056
404,2	0,055
404,6	0,054
405,1	0,053
405,5	0,053
406	0,052
406,5	0,051
406,9	0,05
407,4	0,049
407,8	0,047
408,3	0,047
408,7	0,046
409,2	0,045
409,6	0,044
410,1	0,043
410,6	0,043
411	0,042
411,5	0,041
411,9	0,041
412,4	0,04
412,8	0,039
413,3	0,039
413,7	0,039
414,2	0,038
414,7	0,037
415,1	0,037
415,6	0,036
416	0,035
416,5	0,035
416,9	0,034
417,4	0,033
417,8	0,033
418,3	0,031
418,8	0,03
419,2	0,03
419,7	0,029
420,1	0,029
420,6	0,028
421	0,027
421,5	0,027
421,9	0,026
422,4	0,026
422,8	0,025
423,3	0,024
423,8	0,024
424,2	0,023
424,7	0,023
425,1	0,023
425,6	0,023
426	0,022
426,5	0,022
426,9	0,022
427,4	0,022
427,9	0,021
428,3	0,021
428,8	0,02
429,2	0,02
429,7	0,02
430,1	0,02
430,6	0,019
431	0,019
431,5	0,018
431,9	0,018
432,4	0,017
432,8	0,017
433,3	0,016
433,8	0,014
434,2	0,014
434,7	0,013
435,1	0,012
435,6	0,012
436	0,011
436,5	0,011
436,9	0,011
437,4	0,01
437,8	0,01
438,3	0,01
438,8	0,009
439,2	0,01
439,7	0,01
440,1	0,009
440,6	0,009
441	0,009
441,5	0,008
441,9	0,008
442,4	0,008
442,8	0,008
443,3	0,008
443,7	0,008
444,2	0,007
444,7	0,008
445,1	0,008
445,6	0,008
446	0,008
446,5	0,007
446,9	0,007
447,4	0,007
447,8	0,007
448,3	0,007
448,7	0,006
449,2	0,006
449,6	0,006
450,1	0,005
450,6	0,005
451	0,005
451,5	0,005
451,9	0,005
452,4	0,005
452,8	0,005
453,3	0,005
453,7	0,006
454,2	0,006
454,6	0,006
455,1	0,006
455,5	0,006
456	0,005
456,4	0,004
456,9	0,004
457,3	0,003
457,8	0,004
458,3	0,003
458,7	0,003
459,2	0,003
459,6	0,003
460,1	0,003
460,5	0,003
461	0,003
461,4	0,003
461,9	0,003
462,3	0,003
462,8	0,004
463,2	0,003
463,7	0,002
464,1	0,002
464,6	0,002
465	0,001
465,5	0,001
466	0,001
466,4	0,001
466,9	0,001
467,3	0,001
467,8	0,001
468,2	0,001
468,7	0,001
469,1	0,001
469,6	0,002
470	0,002
470,5	0,002
470,9	0,003
471,4	0,002
471,8	0,002
472,3	0,002
472,7	0,002
473,2	0,001
473,6	0,001
474,1	0,001
474,5	0,001
475	0,001
475,4	0,001
475,9	0,001
476,4	0
476,8	0,001
477,3	0,001
477,7	0,001
478,2	0,002
478,6	0,002
479,1	0,002
479,5	0,003
480	0,003
480,4	0,003
480,9	0,002
481,3	0,002
481,8	0,001
482,2	0,001
482,7	0
483,1	-0
483,6	0
484	0
484,5	0
484,9	0,001
485,4	0,001
485,8	0,002
486,3	0,002
486,7	0,002
487,2	0,002
487,6	0,002
488,1	0,002
488,5	0,002
489	0,001
489,4	0,001
489,9	0,001
490,4	0,001
490,8	0
491,3	0
491,7	0,001
492,2	0,002
492,6	0,002
493,1	0,001
493,5	0,002
494	0,002
494,4	0,002
494,9	0,002
495,3	0,002
495,8	0,002
496,2	0,003
496,7	0,002
497,1	0,002
497,6	0,002
498	0,002
498,5	0,002
498,9	0,002
499,4	0,002
499,8	0,002
500,3	0,002
500,7	0,002
501,2	0,001
501,6	0,001
502,1	0,001
502,5	0,001
503	0,001
503,4	0,002
503,9	0,001
504,3	0,001
504,8	0,002
505,2	0,001
505,7	0,001
506,1	0,001
506,6	0,001
507	0,001
507,5	0,001
507,9	0
508,4	0,001
508,8	0,001
509,3	0,001
509,7	0,001
510,2	0,001
510,6	0,002
511,1	0,003
511,5	0,002
512	0,001
512,4	0,001
512,9	0
513,3	0
513,8	0
514,2	-0
514,7	0
515,1	0,001
515,6	0,001
516	0,001
516,5	0,001
516,9	-0
517,4	0
517,8	0
518,3	-0
518,7	0
519,2	0,001
519,6	0,001
520,1	0,002
520,5	0,001
521	0,001
521,4	0,001
521,9	0,001
522,3	0,001
522,8	0
523,2	0
523,7	0
524,1	0,001
524,6	0,001
525	0,001
525,5	0,002
525,9	0,002
526,4	0,002
526,8	0,002
527,3	0,002
527,7	0,001
528,2	0,001
528,6	0
529,1	0,001
529,5	0,001
530	0,001
530,4	0,001
530,9	0,001
531,3	0,001
531,8	0,002
532,2	0,002
532,6	0,002
533,1	0,002
533,5	0,002
534	0,001
534,4	0,001
534,9	0,001
535,3	0
535,8	0
536,2	0
536,7	0,001
537,1	0
537,6	0,001
538	0,001
538,5	0
538,9	-0
539,4	-0,001
539,8	-0,001
540,3	-0,001
540,7	-0,001
541,2	-0,001
541,6	-0
542,1	0,001
542,5	0,001
543	0,001
543,4	0,001
543,9	0,001
544,3	0
544,8	0,001
545,2	0,001
545,7	0,001
546,1	0,001
546,5	0,001
547	0,001
547,4	0,001
547,9	0,001
548,3	0
548,8	-0
549,2	0
549,7	-0
550,1	-0,001
550,6	-0,001
551	-0,002
551,5	-0,002
551,9	-0,001
552,4	-0,001
552,8	-0
553,3	0
553,7	0
554,2	0,001
554,6	0,002
555,1	0,002
555,5	0,002
555,9	0,002
556,4	0,001
556,8	0,001
557,3	0,001
557,7	0
558,2	0,001
558,6	0,001
559,1	0,001
559,5	0,001
560	0,001
560,4	0,001
560,9	0
561,3	0,001
561,8	-0
562,2	0
562,7	0
563,1	0,001
563,6	0,001
564	0,001
564,4	0,001
564,9	0,001
565,3	0,001
565,8	0,001
566,2	0
566,7	0,001
567,1	0
567,6	-0
568	-0
568,5	0
568,9	0,001
569,4	0,001
569,8	0,001
570,3	0,001
570,7	0,002
571,1	0,002
571,6	0,002
572	0,001
572,5	0,001
572,9	0,001
573,4	0,001
573,8	0,001
574,3	0,001
574,7	0,001
575,2	0,001
575,6	0,001
576,1	0,001
576,5	0
576,9	0,001
577,4	0,001
577,8	0,001
578,3	0,001
578,7	0,001
579,2	0,001
579,6	0,001
580,1	0,001
580,5	0,001
581	0,001
581,4	0,001
581,9	0,001
582,3	0,001
582,7	0,001
583,2	0
583,6	0
584,1	0,001
584,5	0
585	0
585,4	0
585,9	0,001
586,3	0,001
586,8	0,001
587,2	0,001
587,6	0,001
588,1	0,001
588,5	0,001
589	0,001
589,4	0,001
589,9	0,001
590,3	0,001
590,8	0,001
591,2	0,001
591,7	0
592,1	0,001
592,5	0,001
593	0,001
593,4	0,001
593,9	0,001
594,3	0,001
594,8	0,001
595,2	0,001
595,7	0,001
596,1	0
596,6	0,001
597	0,001
597,4	0
597,9	0,001
598,3	0
598,8	0,001
599,2	0,001
599,7	0
600,1	0
600,6	0
601	0
601,4	0
601,9	0
602,3	0
602,8	0
603,2	0,001
603,7	0
604,1	0
604,6	0
605	0
605,4	0
605,9	-0
606,3	-0
606,8	-0
607,2	-0
607,7	-0
608,1	0
608,6	-0
609	0
609,4	0
609,9	0,001
610,3	0,001
610,8	0,001
611,2	0,001
611,7	0,002
612,1	0,002
612,6	0,002
613	0,002
613,4	0,001
613,9	0,001
614,3	0,001
614,8	0
615,2	0
615,7	-0
616,1	-0
616,6	-0
617	-0,001
617,4	-0
617,9	-0
618,3	-0
618,8	0
619,2	0
619,7	0,001
620,1	0
620,5	0
621	0
621,4	0,001
621,9	0,001
622,3	0,001
622,8	0
623,2	0
623,6	0
624,1	0
624,5	-0
625	-0,001
625,4	-0,001
625,9	-0,001
626,3	-0,001
626,8	-0,001
627,2	-0
627,6	0
628,1	0,001
628,5	0,001
629	0
629,4	0
629,9	0
630,3	0
630,7	0
631,2	0
631,6	0
632,1	0
632,5	0,001
633	0,001
633,4	0,001
633,8	0
634,3	0
634,7	0
635,2	0
635,6	-0
636,1	-0,001
636,5	-0
636,9	-0
637,4	-0
637,8	-0,001
638,3	-0
638,7	-0
639,2	0
639,6	-0
640	-0
640,5	-0
640,9	-0
641,4	-0
641,8	-0
642,2	-0,001
642,7	-0,001
643,1	-0,001
643,6	-0,001
644	-0,001
644,5	-0
644,9	-0
645,3	0
645,8	0
646,2	0
646,7	0
647,1	0
647,6	-0
648	0
648,4	0
648,9	0
649,3	0
649,8	0
650,2	0
650,6	0
651,1	-0
651,5	-0
652	-0
652,4	-0
652,9	-0
653,3	-0
653,7	-0,001
654,2	-0,001
654,6	-0,001
655,1	-0,002
655,5	-0,001
655,9	-0,001
656,4	-0,001
656,8	-0,001
657,3	-0,001
657,7	-0,001
658,2	-0,001
658,6	-0,001
659	-0,002
659,5	-0,003
659,9	-0
660,4	0,001
660,8	0,001
661,2	0
661,7	0
662,1	0
662,6	-0
663	-0
663,4	-0,001
663,9	-0
664,3	-0
664,8	-0,001
665,2	-0,001
665,6	-0,001
666,1	-0,001
666,5	-0,001
667	-0,001
667,4	-0,001
667,9	-0
668,3	-0
668,7	-0
669,2	-0
669,6	-0
670,1	-0
670,5	-0,001
670,9	-0,001
671,4	-0
671,8	-0
672,3	-0
672,7	0
673,1	0
673,6	0
674	0,001
674,5	0
674,9	0,001
675,3	0
675,8	0
676,2	0
676,7	0
677,1	-0
677,5	-0
678	-0,001
678,4	-0
678,9	-0
679,3	-0
679,7	0
680,2	0
680,6	0
681,1	0,001
681,5	0,001
681,9	0
682,4	0
682,8	-0
683,3	-0,001
683,7	-0
684,1	-0,001
684,6	-0
685	-0
685,5	-0,001
685,9	-0,001
686,3	-0,001
686,8	-0,001
687,2	-0,001
687,7	-0,001
688,1	-0,002
688,5	-0,002
689	-0,001
689,4	-0,001
689,9	-0,001
690,3	-0,001
690,7	-0,001
691,2	-0
691,6	-0
692	-0
692,5	-0
692,9	-0
693,4	-0
693,8	-0,001
694,2	-0,001
694,7	-0
695,1	0
695,6	0
696	0
696,4	0,001
696,9	0,001
697,3	0,001
697,8	0
698,2	-0
698,6	-0
699,1	-0
699,5	-0,001
699,9	-0,001
700,4	-0
700,8	-0,001
701,3	-0,001
701,7	-0
702,1	-0
702,6	-0
703	-0,001
703,5	-0,001
703,9	-0
704,3	-0
704,8	-0,001
705,2	-0
705,6	-0
706,1	-0,001
706,5	-0,001
707	-0,001
707,4	-0,001
707,8	-0,001
708,3	-0,001
708,7	-0,001
709,2	-0,001
709,6	-0
710	-0
710,5	-0
710,9	0
711,3	-0
711,8	-0
712,2	-0
712,7	-0,001
713,1	-0,001
713,5	-0
714	-0
714,4	-0
714,8	-0
715,3	-0
715,7	-0
716,2	-0,001
716,6	-0,001
717	-0,001
717,5	-0,001
717,9	-0
718,3	-0
718,8	-0
719,2	-0
719,7	-0
720,1	-0,001
720,5	-0
721	-0,001
721,4	-0,001
721,8	-0,001
722,3	-0,001
722,7	-0,001
723,2	-0
723,6	-0,001
724	-0,001
724,5	-0,001
724,9	-0,001
725,3	-0
725,8	-0,001
726,2	-0,001
726,7	-0
727,1	-0
727,5	0
728	0
728,4	-0
728,8	0
729,3	0
729,7	0
730,1	0
730,6	-0
731	-0
731,5	-0
731,9	-0,001
732,3	-0,001
732,8	-0,001
733,2	-0,001
733,6	-0,001
734,1	-0,001
734,5	-0,001
734,9	-0,001
735,4	-0,001
735,8	-0,001
736,3	-0,001
736,7	-0,001
737,1	-0,001
737,6	-0,001
738	-0,001
738,4	-0,001
738,9	-0,001
739,3	-0,001
739,7	-0,001
740,2	-0
740,6	-0
741,1	-0
741,5	-0
741,9	-0
742,4	-0
742,8	-0
743,2	-0
743,7	-0
744,1	0
744,5	-0
745	-0
745,4	0
745,8	-0
746,3	-0
746,7	-0
747,2	-0,001
747,6	-0,001
748	-0,001
748,5	-0,002
748,9	-0,002
749,3	-0,001
749,8	-0,001
750,2	-0,002
750,6	-0,002
751,1	-0,002
751,5	-0,002
751,9	-0,002
752,4	-0,002
752,8	-0,002
753,3	-0,002
753,7	-0,002
754,1	-0,001
754,6	-0,001
755	-0,001
755,4	-0,001
755,9	-0,001
756,3	-0,001
756,7	-0,001
757,2	-0,001
757,6	-0,001
758	-0,001
758,5	-0,001
758,9	-0,001
759,3	-0,001
759,8	-0,001
760,2	-0
760,6	-0,001
761,1	-0
761,5	-0
761,9	-0
762,4	-0
762,8	-0
763,3	-0,001
763,7	-0,001
764,1	-0,001
764,6	-0,001
765	-0,001
765,4	-0,001
765,9	-0,001
766,3	-0,001
766,7	-0,001
767,2	-0,001
767,6	-0
768	-0,001
768,5	-0
768,9	-0
769,3	-0,001
769,8	-0,001
770,2	-0,001
770,6	-0,001
771,1	-0,001
771,5	-0
771,9	-0
772,4	-0
772,8	-0
773,2	-0,001
773,7	-0,001
774,1	-0,001
774,5	-0,002
775	-0,002
775,4	-0,002
775,8	-0,002
776,3	-0,002
776,7	-0,001
777,1	-0,001
777,6	-0,001
778	-0
778,4	-0
778,9	-0
779,3	-0
779,7	-0
780,2	-0
780,6	-0
781	-0
781,5	-0
781,9	-0
782,3	-0
782,8	-0
783,2	0
783,6	-0
784,1	-0
784,5	-0
784,9	-0
785,4	-0
785,8	0
786,2	-0
786,7	0
787,1	0
787,5	0
788	-0
788,4	-0
788,8	-0,001
789,3	-0,001
789,7	-0,001
790,1	-0,001
790,6	-0,001
791	-0
791,4	-0
791,9	-0
792,3	0
792,7	-0
793,2	-0
793,6	-0
794	-0,001
794,5	-0
794,9	-0
795,3	-0
795,8	-0
796,2	-0
796,6	-0
797,1	-0
797,5	-0
797,9	-0
798,4	-0
798,8	-0
799,2	-0
799,7	-0,001
800,1	-0,001
800,5	-0
801	-0
801,4	-0
801,8	-0
802,2	-0
802,7	-0
803,1	-0
803,5	-0
804	-0,001
804,4	-0,001
804,8	-0,001
805,3	-0
805,7	-0
806,1	0
806,6	0
807	0,001
807,4	0,001
807,9	0
808,3	0
808,7	0
809,2	-0
809,6	-0,001
810	-0,001
810,4	-0,001
810,9	-0,001
811,3	-0,001
811,7	-0,001
812,2	-0,001
812,6	-0,001
813	-0,001
813,5	-0,001
813,9	-0,001
814,3	-0,001
814,8	-0,001
815,2	-0,001
815,6	-0,001
816,1	-0,001
816,5	-0,001
816,9	-0,001
817,3	-0
817,8	0
818,2	0
818,6	-0
819,1	0
819,5	-0
819,9	0
820,4	0
820,8	-0
821,2	0
821,7	0
822,1	0
822,5	0
822,9	0
823,4	0
823,8	0,001
824,2	0,001
824,7	0,001
825,1	0,001
825,5	0
826	0
826,4	0
826,8	-0
827,3	-0,001
827,7	-0,001
828,1	-0,002
828,5	-0,002
829	-0,002
829,4	-0,002
829,8	-0,002
830,3	-0,002
830,7	-0,002
831,1	-0,001
831,6	-0,001
832	-0,001
832,4	-0,001
832,8	-0,001
833,3	-0,001
833,7	-0,001
834,1	-0,001
834,6	-0,001
835	-0,001
835,4	-0,001
835,8	-0,001
836,3	-0,001
836,7	-0
837,1	0
837,6	0
838	0,001
838,4	0,001
838,9	0
839,3	-0
839,7	-0
840,1	-0,001
840,6	-0,001
841	-0,001
841,4	-0,001
841,9	-0,001
842,3	-0,001
842,7	-0
843,1	-0,001
843,6	-0,001
844	-0,001
844,4	-0,001
844,9	-0,001
845,3	-0,001
845,7	-0,002
846,2	-0,002
846,6	-0,002
847	-0,002
847,4	-0,002
847,9	-0,002
848,3	-0,002
848,7	-0,002
849,2	-0,001
849,6	-0,001
850	-0,001
850,4	-0,001
850,9	-0,001
851,3	-0,001
851,7	-0,001
852,2	-0,001
852,6	-0,002
853	-0,002
853,4	-0,002
853,9	-0,002
854,3	-0,002
854,7	-0,002
855,2	-0,002
855,6	-0,002
856	-0,002
856,4	-0,002
856,9	-0,001
857,3	-0,001
857,7	-0,002
858,2	-0,001
858,6	-0,001
859	-0,001
859,4	-0,001
859,9	-0,001
860,3	-0,001
860,7	-0,001
861,1	-0,001
861,6	-0,001
862	-0
862,4	-0,001
862,9	-0,001
863,3	-0,001
863,7	-0,002
864,1	-0,002
864,6	-0,002
865	-0,002
865,4	-0,002
865,9	-0,002
866,3	-0,001
866,7	-0,001
867,1	-0,001
867,6	-0,001
868	-0,001
868,4	-0,001
868,8	-0,001
869,3	-0,001
869,7	-0,001
870,1	-0,001
870,6	-0,001
871	-0,001
871,4	-0,001
871,8	-0,002
872,3	-0,002
872,7	-0,002
873,1	-0,002
873,5	-0,002
874	-0,002
874,4	-0,001
874,8	-0,001
875,3	-0,001
875,7	-0,001
876,1	-0,001
876,5	-0,002
877	-0,001
877,4	-0,001
877,8	-0,001
878,2	-0,001
878,7	-0,001
879,1	-0,001
879,5	-0,001
879,9	-0,001
880,4	-0,001
880,8	-0,001
881,2	-0
881,7	-0
882,1	-0,001
882,5	-0,001
882,9	-0,001
883,4	-0,001
883,8	-0,001
884,2	-0,001
884,6	-0
885,1	-0
885,5	-0,001
885,9	-0,001
886,3	-0,001
886,8	-0,001
887,2	-0,001
887,6	-0,002
888	-0,002
888,5	-0,001
888,9	-0,001
889,3	-0,001
889,8	-0,001
890,2	-0,001
890,6	-0,001
891	-0,001
891,5	-0,001
891,9	-0,001
892,3	-0,001
892,7	-0,001
893,2	-0,001
893,6	-0,001
894	-0,001
894,4	-0,001
894,9	-0,001
895,3	-0,002
895,7	-0,002
896,1	-0,002
896,6	-0,002
897	-0,002
897,4	-0,002
897,8	-0,002
898,3	-0,002
898,7	-0,002
899,1	-0,002
899,5	-0,002
900	-0,001
900,4	-0,001
900,8	-0,001
901,2	-0,001
901,7	-0,002
902,1	-0,002
902,5	-0,002
902,9	-0,002
903,4	-0,002
903,8	-0,001
904,2	-0,001
904,6	-0,001
905,1	-0,001
905,5	-0,001
905,9	-0,001
906,3	-0,001
906,8	-0,001
907,2	-0,001
907,6	-0
908	-0
908,5	-0
908,9	0
909,3	-0
909,7	-0
910,2	-0
910,6	-0
911	-0
911,4	-0
911,9	0
912,3	0
912,7	0
913,1	0,001
913,6	0,001
914	0,001
914,4	0
914,8	0
915,3	0,001
915,7	0,001
916,1	0,001
916,5	0
916,9	0
917,4	0
917,8	0
918,2	0
918,6	-0
919,1	-0,001
919,5	-0,001
919,9	-0,001
920,3	-0,001
920,8	-0,002
921,2	-0,002
921,6	-0,002
922	-0,001
922,5	-0,002
922,9	-0,001
923,3	-0,001
923,7	-0,001
924,2	-0,001
924,6	-0,002
925	-0,002
925,4	-0,002
925,8	-0,002
926,3	-0,002
926,7	-0,002
927,1	-0,002
927,5	-0,002
928	-0,002
928,4	-0,002
928,8	-0,002
929,2	-0,002
929,7	-0,002
930,1	-0,002
930,5	-0,002
930,9	-0,002
931,3	-0,002
931,8	-0,002
932,2	-0,003
932,6	-0,002
933	-0,002
933,5	-0,002
933,9	-0,002
934,3	-0,003
934,7	-0,002
935,2	-0,002
935,6	-0,002
936	-0,002
936,4	-0,002
936,8	-0,002
937,3	-0,002
937,7	-0,002
938,1	-0,002
938,5	-0,003
939	-0,004
939,4	-0,004
939,8	-0,003
940,2	-0,003
940,6	-0,003
941,1	-0,003
941,5	-0,003
941,9	-0,002
942,3	-0,002
942,8	-0,002
943,2	-0,002
943,6	-0,002
944	-0,003
944,4	-0,002
944,9	-0,003
945,3	-0,003
945,7	-0,003
946,1	-0,003
946,6	-0,003
947	-0,003
947,4	-0,003
947,8	-0,003
948,2	-0,003
948,7	-0,004
949,1	-0,004
949,5	-0,004
949,9	-0,005
950,3	-0,005
950,8	-0,006
951,2	-0,005
951,6	-0,005
952	-0,006
952,5	-0,006
952,9	-0,005
953,3	-0,006
953,7	-0,006
954,1	-0,006
954,6	-0,006
955	-0,006
955,4	-0,007
955,8	-0,008
956,2	-0,007
956,7	-0,007
957,1	-0,008
957,5	-0,008
957,9	-0,009
958,3	-0,008
958,8	-0,008
959,2	-0,009
959,6	-0,009
960	-0,01
960,5	-0,01
960,9	-0,009
961,3	-0,01
961,7	-0,01
962,1	-0,01
962,6	-0,01
963	-0,009
963,4	-0,009
963,8	-0,009
964,2	-0,01
964,7	-0,01
965,1	-0,009
965,5	-0,009
965,9	-0,009
966,3	-0,009
966,8	-0,009
967,2	-0,008
967,6	-0,008
968	-0,008
968,4	-0,008
968,9	-0,008
969,3	-0,007
969,7	-0,007
970,1	-0,006
970,5	-0,005
971	-0,005
971,4	-0,005
971,8	-0,006
972,2	-0,005
972,6	-0,006
973,1	-0,007
973,5	-0,007
973,9	-0,008
974,3	-0,008
974,7	-0,007
975,2	-0,007
975,6	-0,007
976	-0,006
976,4	-0,006
976,8	-0,006
977,3	-0,005
977,7	-0,005
978,1	-0,005
978,5	-0,005
978,9	-0,005
979,4	-0,005
979,8	-0,005
980,2	-0,005
980,6	-0,005
981	-0,005
981,5	-0,005
981,9	-0,006
982,3	-0,006
982,7	-0,006
983,1	-0,006
983,6	-0,006
984	-0,006
984,4	-0,006
984,8	-0,006
985,2	-0,006
985,6	-0,006
986,1	-0,007
986,5	-0,007
986,9	-0,007
987,3	-0,007
987,7	-0,006
988,2	-0,006
988,6	-0,006
989	-0,006
989,4	-0,005
989,8	-0,005
990,3	-0,005
990,7	-0,006
991,1	-0,005
991,5	-0,005
991,9	-0,005
992,3	-0,005
992,8	-0,005
993,2	-0,004
993,6	-0,004
994	-0,004
994,4	-0,004
994,9	-0,003
995,3	-0,003
995,7	-0,003
996,1	-0,004
996,5	-0,004
996,9	-0,003
997,4	-0,003
997,8	-0,003
998,2	-0,004
998,6	-0,003
999	-0,003
999,5	-0,003
999,9	-0,004
1000,3	-0,004
1000,7	-0,004
1001,1	-0,004
1001,5	-0,004
1002	-0,004
1002,4	-0,003
1002,8	-0,003
1003,2	-0,002
1003,6	-0,001
1004	-0,001
1004,5	-0,001
1004,9	-0,002
1005,3	-0,001
1005,7	-0,001
1006,1	-0,001
1006,6	-0,002
1007	-0,001
1007,4	-0
1007,8	-0
1008,2	0,001
1008,6	0,001
1009,1	0
1009,5	0,001
1009,9	0
1010,3	0
1010,7	0
1011,1	0
1011,6	0,001
1012	0,001
1012,4	0,001
1012,8	0,001
1013,2	0
1013,6	0,001
1014,1	0
1014,5	-0,001
1014,9	-0,001
1015,3	-0,001
1015,7	-0,001
1016,1	0
1016,6	-0
1017	-0
1017,4	0
1017,8	0
1018,2	0,001
1018,6	0,001
1019,1	0
1019,5	0,001
1019,9	0,001
1020,3	0,001
1020,7	0,001
1021,1	0,001
1021,6	0,001
1022	0,001
1022,4	0,001
1022,8	0,001
1023,2	0,001
1023,6	0,001
1024,1	0,002
1024,5	0,003
1024,9	0,002
1025,3	0,002
1025,7	0,003
1026,1	0,002
1026,6	0,002
1027	0,001
1027,4	0,001
1027,8	0,002
1028,2	0,002
1028,6	0,002
1029	0,002
1029,5	0,002
1029,9	0,002
1030,3	0,002
1030,7	0,002
1031,1	0,001
1031,5	0,001
1032	0,001
1032,4	0,001
1032,8	0,001
1033,2	0,001
1033,6	0,001
1034	0,001
1034,4	0,001
1034,9	0
1035,3	-0
1035,7	-0
1036,1	-0
1036,5	-0,002
1036,9	-0,001
1037,4	-0
1037,8	0
1038,2	-0
1038,6	-0,001
1039	-0,001
1039,4	0
1039,8	-0
1040,3	-0,002
1040,7	-0,001
1041,1	-0,001
1041,5	0
1041,9	0,001
1042,3	0,001
1042,7	0,001
1043,2	0,002
1043,6	0,002
1044	0,001
1044,4	0,001
1044,8	0,001
1045,2	0
1045,6	0
1046,1	0,001
1046,5	0,001
1046,9	0,001
1047,3	0,002
1047,7	0,002
1048,1	0,001
1048,5	0,001
1049	0,001
1049,4	-0,001
1049,8	-0,001
1050,2	-0,002
1050,6	-0,003
1051	-0,002
1051,4	-0,001
1051,9	-0,001
1052,3	0,001
1052,7	0,001
1053,1	0,002
1053,5	0,003
1053,9	0,003
1054,3	0,003
1054,8	0,003
1055,2	0,002
1055,6	0,002
1056	0,002
1056,4	0,002
1056,8	0,002
1057,2	0,002
1057,6	0,001
1058,1	0,001
1058,5	0,001
1058,9	0,001
1059,3	0,002
1059,7	0,002
1060,1	0,002
1060,5	0,003
1061	0,003
1061,4	0,002
1061,8	0,001
1062,2	0,001
1062,6	0,001
1063	0,001
1063,4	0,001
1063,8	0,001
1064,3	0,001
1064,7	0,001
1065,1	0,001
1065,5	0,001
1065,9	0,001
1066,3	0,001
1066,7	0,001
1067,1	0,002
1067,6	0,002
1068	0,002
1068,4	0,002
1068,8	0
1069,2	-0
1069,6	0
1070	0
1070,4	0,001
1070,9	0
1071,3	0
1071,7	0,001
1072,1	0
1072,5	0,001
1072,9	0,002
1073,3	0,001
1073,7	0,002
1074,2	0,002
1074,6	0,001
1075	0,002
1075,4	0,002
1075,8	0,001
1076,2	0
1076,6	-0
1077	-0,001
1077,5	-0
1077,9	-0,001
1078,3	-0,002
1078,7	0
1079,1	0,002
1079,5	0,003
1079,9	0,005
1080,3	0,004
1080,7	0,004
1081,2	0,004
1081,6	0,002
1082	-0
1082,4	-0,002
1082,8	-0,004
1083,2	-0,004
1083,6	-0,005
1084	-0,006
1084,5	-0,006
1084,9	-0,007
1085,3	-0,007
1085,7	-0,006
1086,1	-0,005
1086,5	-0,005
1086,9	-0,002
1087,3	-0,001
1087,7	-0
1088,2	-0,001
1088,6	-0,002
1089	-0,002
1089,4	-0,001
1089,8	-0,002
1090,2	-0,005
1090,6	-0,003
1091	-0,001
1091,4	-0,001
1091,9	-0,002
1092,3	-0,002
1092,7	-0,006
1093,1	-0,003
1093,5	-0,002
1093,9	-0,005
1094,3	-0
1094,7	-0,002
1095,1	0,002
1095,5	0,003
1096	0,002
1096,4	0,004
1096,8	0,007
1097,2	0,004
1097,6	0,005
1098	0,002
1098,4	0,007
1098,8	0,006
1099,2	-0,002
1099,6	-0,003
1100,1	-0,007
1100,5	-0,009
1100,9	-0,009
1101,3	-0,008
1101,7	-0,012
1102,1	-0,005
1102,5	-0,007
1102,9	-0,008
1103,3	-0,006
1103,7	-0,009
1104,2	-0,02
1104,6	-0,02
1105	-0,036
1105,4	-0,038
1105,8	-0,038
1106,2	-0,043
1106,6	-0,055
1107	-0,074
1107,4	-0,082
1107,8	-0,07
1108,3	0,671
