Data from Subt2_00003.txt Node
Date: Wed Aug 02 18:51:00 MSK 2023
User: vat
Spectrometer: MAYP114033
Trigger mode: 0
Integration Time (sec): 7,000000E-1
Scans to average: 5
Electric dark correction enabled: true
Nonlinearity correction enabled: false
Boxcar width: 0
XAxis mode: Wavelengths
Number of Pixels in Spectrum: 2068
>>>>>Begin Spectral Data<<<<<
199,4	-0,467
199,9	-0,867
200,4	-2,267
200,8	2,133
201,3	8,333
201,8	29,533
202,2	-2,467
202,7	-13,467
203,2	9,733
203,6	6,333
204,1	-10,067
204,6	-7,867
205	24,533
205,5	-7,667
206	-22,467
206,4	19,333
206,9	3,733
207,4	18,933
207,8	11,333
208,3	18,333
208,8	4,333
209,2	23,933
209,7	-3,067
210,2	-0,067
210,6	8,733
211,1	14,933
211,5	-12,267
212	4,733
212,5	-3,067
212,9	3,733
213,4	-8,467
213,9	3,933
214,3	10,333
214,8	16,333
215,3	7,333
215,7	14,333
216,2	-12,267
216,7	11,333
217,1	5,933
217,6	-8,067
218,1	-5,667
218,5	-27,867
219	6,333
219,5	1,533
219,9	14,933
220,4	-13,867
220,9	2,933
221,3	16,533
221,8	-3,667
222,3	2,533
222,7	-19,067
223,2	24,933
223,6	2,733
224,1	14,333
224,6	13,733
225	15,133
225,5	21,533
226	-4,067
226,4	7,333
226,9	-13,467
227,4	23,133
227,8	-18,467
228,3	-1,467
228,8	8,333
229,2	-3,467
229,7	-12,067
230,2	33,533
230,6	7,933
231,1	20,333
231,5	-14,267
232	-0,667
232,5	-4,467
232,9	-7,467
233,4	-9,067
233,9	-20,267
234,3	7,933
234,8	29,333
235,3	5,733
235,7	-5,067
236,2	-8,067
236,7	-31,867
237,1	16,733
237,6	-21,067
238,1	-13,867
238,5	38,933
239	18,933
239,4	-13,267
239,9	-18,667
240,4	24,333
240,8	3,133
241,3	-9,467
241,8	22,133
242,2	-0,067
242,7	4,533
243,2	29,133
243,6	-0,867
244,1	-9,667
244,6	-11,667
245	-16,067
245,5	-19,067
245,9	35,933
246,4	10,733
246,9	15,533
247,3	11,933
247,8	26,733
248,3	30,333
248,7	12,133
249,2	7,133
249,7	2,333
250,1	7,533
250,6	-18,867
251	31,133
251,5	32,333
252	33,533
252,4	32,533
252,9	10,533
253,4	11,533
253,8	-5,667
254,3	30,333
254,8	-18,667
255,2	19,933
255,7	24,933
256,1	-25,067
256,6	7,933
257,1	-14,267
257,5	-8,467
258	-21,667
258,5	1,533
258,9	-3,067
259,4	24,733
259,9	3,333
260,3	25,733
260,8	-6,067
261,2	-12,667
261,7	21,933
262,2	30,933
262,6	30,533
263,1	30,333
263,6	29,133
264	26,333
264,5	-38,067
264,9	2,933
265,4	-16,667
265,9	14,333
266,3	20,533
266,8	31,933
267,3	23,333
267,7	-1,867
268,2	19,333
268,7	13,733
269,1	-2,267
269,6	18,533
270	12,933
270,5	5,733
271	-7,067
271,4	54,133
271,9	27,733
272,4	-1,467
272,8	7,133
273,3	19,733
273,7	-2,867
274,2	4,133
274,7	11,133
275,1	12,933
275,6	-12,467
276,1	17,533
276,5	-6,667
277	7,733
277,4	-14,067
277,9	-5,667
278,4	-5,667
278,8	10,733
279,3	-8,067
279,8	-6,067
280,2	-2,467
280,7	-28,667
281,1	-5,867
281,6	-1,267
282,1	14,533
282,5	25,133
283	-4,267
283,4	-17,467
283,9	17,533
284,4	-24,067
284,8	18,933
285,3	6,333
285,8	13,533
286,2	1,333
286,7	-6,867
287,1	-0,067
287,6	-18,267
288,1	2,933
288,5	26,933
289	0,333
289,5	-4,867
289,9	24,933
290,4	7,933
290,8	-3,267
291,3	31,933
291,8	-26,667
292,2	13,333
292,7	-5,267
293,1	-1,467
293,6	-6,667
294,1	-12,067
294,5	-3,867
295	15,733
295,5	-2,867
295,9	-2,067
296,4	13,133
296,8	23,133
297,3	-28,467
297,8	38,333
298,2	15,333
298,7	-6,667
299,1	26,133
299,6	-23,467
300,1	-18,667
300,5	6,533
301	1,933
301,5	17,133
301,9	10,133
302,4	-3,867
302,8	-3,667
303,3	8,533
303,8	6,333
304,2	2,933
304,7	42,333
305,1	9,333
305,6	1,533
306,1	-14,667
306,5	22,133
307	-20,467
307,4	8,133
307,9	2,933
308,4	26,733
308,8	25,533
309,3	-4,467
309,8	-21,467
310,2	8,133
310,7	-19,867
311,1	-20,867
311,6	1,333
312,1	-13,467
312,5	30,933
313	-1,267
313,4	18,133
313,9	-5,667
314,4	16,933
314,8	33,333
315,3	7,933
315,7	11,133
316,2	-27,467
316,7	-6,067
317,1	31,133
317,6	3,333
318	38,933
318,5	-14,867
319	9,733
319,4	14,533
319,9	2,533
320,3	-8,467
320,8	-25,467
321,3	2,133
321,7	-10,867
322,2	-13,667
322,6	6,533
323,1	7,933
323,6	3,333
324	33,533
324,5	44,733
324,9	0,133
325,4	14,533
325,9	-24,867
326,3	-6,867
326,8	4,933
327,2	-24,467
327,7	19,733
328,2	8,533
328,6	-2,867
329,1	10,733
329,5	-17,067
330	37,333
330,5	14,933
330,9	7,133
331,4	-8,267
331,8	-14,867
332,3	34,133
332,8	3,533
333,2	-21,867
333,7	-9,667
334,1	-5,267
334,6	-4,667
335,1	-8,867
335,5	23,933
336	1,733
336,4	22,333
336,9	-0,667
337,4	-6,867
337,8	24,333
338,3	17,533
338,7	6,933
339,2	-8,467
339,7	9,933
340,1	-6,067
340,6	39,333
341	-9,867
341,5	-24,067
342	30,333
342,4	-18,267
342,9	18,133
343,3	-14,267
343,8	-13,067
344,2	-7,867
344,7	8,933
345,2	3,733
345,6	-27,067
346,1	-31,667
346,5	-19,667
347	7,333
347,5	-7,267
347,9	-14,267
348,4	-27,267
348,8	6,733
349,3	13,533
349,8	37,933
350,2	-0,067
350,7	15,533
351,1	5,733
351,6	34,133
352	19,933
352,5	0,133
353	-20,467
353,4	-0,467
353,9	0,533
354,3	20,133
354,8	38,133
355,3	19,733
355,7	51,733
356,2	38,733
356,6	60,533
357,1	61,533
357,5	84,133
358	102,333
358,5	97,133
358,9	82,933
359,4	91,333
359,8	82,333
360,3	149,733
360,8	191,133
361,2	182,133
361,7	200,333
362,1	221,333
362,6	265,933
363	311,133
363,5	348,333
364	342,533
364,4	379,133
364,9	443,333
365,3	487,333
365,8	532,533
366,3	569,333
366,7	569,733
367,2	639,133
367,6	619,733
368,1	648,333
368,5	680,733
369	684,533
369,5	673,533
369,9	667,333
370,4	661,133
370,8	627,133
371,3	605,333
371,7	583,133
372,2	558,533
372,7	571,133
373,1	550,133
373,6	483,133
374	475,533
374,5	424,533
374,9	393,133
375,4	380,733
375,9	354,533
376,3	314,933
376,8	308,933
377,2	271,333
377,7	287,933
378,2	240,533
378,6	200,133
379,1	171,933
379,5	149,533
380	166,533
380,4	132,533
380,9	177,133
381,4	137,333
381,8	107,933
382,3	137,933
382,7	93,333
383,2	81,333
383,6	139,733
384,1	92,733
384,6	103,733
385	69,533
385,5	62,933
385,9	81,333
386,4	72,133
386,8	85,133
387,3	27,333
387,7	36,733
388,2	67,733
388,7	62,733
389,1	46,533
389,6	58,333
390	49,333
390,5	32,333
390,9	9,333
391,4	57,533
391,9	67,533
392,3	20,733
392,8	12,933
393,2	44,933
393,7	39,733
394,1	40,933
394,6	34,133
395,1	37,333
395,5	15,333
396	28,933
396,4	55,933
396,9	39,533
397,3	8,933
397,8	30,933
398,2	11,533
398,7	37,533
399,2	23,533
399,6	68,733
400,1	6,133
400,5	-2,867
401	18,133
401,4	28,733
401,9	13,533
402,4	24,333
402,8	17,733
403,3	4,133
403,7	11,933
404,2	28,133
404,6	50,533
405,1	48,733
405,5	26,333
406	-6,467
406,5	21,733
406,9	43,733
407,4	40,933
407,8	13,933
408,3	26,333
408,7	18,933
409,2	6,133
409,6	35,733
410,1	12,933
410,6	22,733
411	6,533
411,5	38,533
411,9	37,733
412,4	1,333
412,8	23,333
413,3	25,933
413,7	57,133
414,2	46,733
414,7	46,733
415,1	10,133
415,6	25,133
416	54,933
416,5	-8,067
416,9	59,333
417,4	71,733
417,8	78,933
418,3	37,333
418,8	42,133
419,2	27,333
419,7	50,733
420,1	72,533
420,6	58,733
421	30,333
421,5	40,933
421,9	64,733
422,4	74,533
422,8	80,933
423,3	24,333
423,8	72,933
424,2	68,133
424,7	86,733
425,1	68,933
425,6	87,733
426	41,933
426,5	56,333
426,9	34,733
427,4	69,533
427,9	67,533
428,3	63,133
428,8	65,733
429,2	69,733
429,7	97,733
430,1	75,933
430,6	91,733
431	97,133
431,5	93,933
431,9	44,733
432,4	131,133
432,8	78,733
433,3	95,333
433,8	78,333
434,2	130,533
434,7	85,133
435,1	108,333
435,6	134,333
436	107,733
436,5	136,533
436,9	95,733
437,4	83,133
437,8	126,933
438,3	140,933
438,8	143,333
439,2	122,733
439,7	168,933
440,1	138,933
440,6	189,733
441	188,133
441,5	168,133
441,9	204,333
442,4	165,733
442,8	210,733
443,3	187,133
443,7	209,533
444,2	245,733
444,7	231,333
445,1	234,333
445,6	246,933
446	261,733
446,5	247,733
446,9	285,333
447,4	270,533
447,8	298,133
448,3	293,933
448,7	320,933
449,2	341,733
449,6	329,933
450,1	344,733
450,6	370,333
451	393,733
451,5	375,133
451,9	412,333
452,4	416,733
452,8	443,333
453,3	424,533
453,7	457,533
454,2	475,933
454,6	482,333
455,1	503,933
455,5	542,733
456	496,333
456,4	528,533
456,9	554,533
457,3	566,933
457,8	584,333
458,3	639,933
458,7	655,733
459,2	666,733
459,6	662,333
460,1	672,333
460,5	672,933
461	740,333
461,4	761,533
461,9	751,133
462,3	748,733
462,8	810,733
463,2	806,733
463,7	803,133
464,1	877,133
464,6	856,133
465	896,733
465,5	897,333
466	952,133
466,4	974,933
466,9	951,533
467,3	1047,933
467,8	991,333
468,2	1080,133
468,7	1059,133
469,1	1076,333
469,6	1080,533
470	1151,533
470,5	1125,733
470,9	1195,533
471,4	1203,933
471,8	1230,733
472,3	1234,333
472,7	1259,933
473,2	1292,533
473,6	1330,333
474,1	1287,733
474,5	1358,933
475	1393,933
475,4	1396,533
475,9	1420,333
476,4	1441,933
476,8	1477,133
477,3	1486,133
477,7	1466,933
478,2	1475,933
478,6	1484,533
479,1	1538,933
479,5	1569,133
480	1583,733
480,4	1618,733
480,9	1592,933
481,3	1620,933
481,8	1649,333
482,2	1651,933
482,7	1633,533
483,1	1707,733
483,6	1684,733
484	1705,533
484,5	1760,133
484,9	1748,733
485,4	1742,533
485,8	1778,933
486,3	1724,733
486,7	1747,733
487,2	1809,333
487,6	1808,133
488,1	1785,333
488,5	1825,133
489	1784,133
489,4	1843,133
489,9	1821,133
490,4	1809,333
490,8	1824,933
491,3	1836,933
491,7	1825,733
492,2	1831,133
492,6	1873,733
493,1	1850,933
493,5	1883,733
494	1844,933
494,4	1842,533
494,9	1815,733
495,3	1851,733
495,8	1875,333
496,2	1850,333
496,7	1829,133
497,1	1835,733
497,6	1867,133
498	1858,133
498,5	1819,533
498,9	1833,133
499,4	1826,133
499,8	1798,133
500,3	1834,733
500,7	1819,533
501,2	1811,133
501,6	1797,733
502,1	1774,733
502,5	1794,733
503	1772,333
503,4	1777,133
503,9	1773,333
504,3	1743,533
504,8	1751,133
505,2	1747,933
505,7	1781,933
506,1	1728,933
506,6	1726,733
507	1717,933
507,5	1690,333
507,9	1708,133
508,4	1703,933
508,8	1666,933
509,3	1687,933
509,7	1665,133
510,2	1642,533
510,6	1682,933
511,1	1627,333
511,5	1641,133
512	1619,533
512,4	1613,333
512,9	1616,733
513,3	1612,733
513,8	1570,133
514,2	1564,333
514,7	1558,133
515,1	1598,133
515,6	1531,733
516	1521,133
516,5	1554,133
516,9	1488,333
517,4	1508,733
517,8	1511,933
518,3	1530,533
518,7	1503,933
519,2	1480,133
519,6	1446,733
520,1	1447,533
520,5	1460,733
521	1413,533
521,4	1428,333
521,9	1433,133
522,3	1402,733
522,8	1405,333
523,2	1433,933
523,7	1386,533
524,1	1371,133
524,6	1396,133
525	1381,733
525,5	1375,933
525,9	1358,933
526,4	1346,533
526,8	1374,933
527,3	1340,933
527,7	1343,733
528,2	1346,333
528,6	1305,133
529,1	1336,733
529,5	1334,733
530	1300,133
530,4	1298,133
530,9	1297,733
531,3	1287,933
531,8	1317,733
532,2	1290,933
532,6	1270,933
533,1	1267,933
533,5	1266,133
534	1233,933
534,4	1285,533
534,9	1239,133
535,3	1258,933
535,8	1237,133
536,2	1263,533
536,7	1226,133
537,1	1221,733
537,6	1231,933
538	1216,133
538,5	1237,933
538,9	1224,533
539,4	1213,733
539,8	1239,333
540,3	1181,133
540,7	1173,133
541,2	1178,533
541,6	1172,933
542,1	1200,933
542,5	1163,733
543	1183,933
543,4	1179,133
543,9	1182,333
544,3	1143,533
544,8	1171,333
545,2	1188,533
545,7	1153,333
546,1	1149,933
546,5	1174,533
547	1144,533
547,4	1134,533
547,9	1161,133
548,3	1130,333
548,8	1149,333
549,2	1131,333
549,7	1108,933
550,1	1111,133
550,6	1164,933
551	1142,133
551,5	1112,333
551,9	1116,733
552,4	1110,133
552,8	1121,533
553,3	1131,333
553,7	1100,733
554,2	1113,933
554,6	1124,533
555,1	1108,733
555,5	1113,133
555,9	1056,133
556,4	1089,533
556,8	1101,133
557,3	1125,933
557,7	1079,933
558,2	1076,733
558,6	1070,933
559,1	1082,933
559,5	1087,333
560	1085,533
560,4	1076,133
560,9	1065,133
561,3	1078,933
561,8	1079,333
562,2	1077,733
562,7	1103,733
563,1	1088,733
563,6	1089,133
564	1055,733
564,4	1059,333
564,9	1079,533
565,3	1069,333
565,8	1076,533
566,2	1057,333
566,7	1097,533
567,1	1025,933
567,6	1032,733
568	1056,333
568,5	1062,333
568,9	1041,333
569,4	1068,933
569,8	1041,733
570,3	1053,733
570,7	1056,933
571,1	1027,333
571,6	1046,733
572	1051,333
572,5	1039,133
572,9	1043,133
573,4	1020,933
573,8	1010,933
574,3	998,133
574,7	1048,333
575,2	1028,333
575,6	1015,333
576,1	1023,533
576,5	1034,533
576,9	1011,533
577,4	982,933
577,8	998,533
578,3	1023,533
578,7	998,733
579,2	989,333
579,6	987,133
580,1	991,733
580,5	975,333
581	975,733
581,4	971,333
581,9	968,533
582,3	1023,733
582,7	1000,333
583,2	985,933
583,6	980,933
584,1	939,133
584,5	964,133
585	984,733
585,4	946,333
585,9	954,933
586,3	914,333
586,8	957,533
587,2	958,733
587,6	936,933
588,1	920,133
588,5	935,733
589	927,733
589,4	939,333
589,9	927,733
590,3	888,533
590,8	911,333
591,2	928,733
591,7	917,333
592,1	940,133
592,5	923,533
593	912,933
593,4	896,733
593,9	907,133
594,3	884,933
594,8	901,733
595,2	918,333
595,7	883,933
596,1	870,333
596,6	880,733
597	878,933
597,4	890,133
597,9	879,333
598,3	884,133
598,8	861,533
599,2	861,333
599,7	862,733
600,1	847,333
600,6	872,933
601	903,133
601,4	860,133
601,9	824,133
602,3	859,533
602,8	820,933
603,2	834,133
603,7	854,933
604,1	852,133
604,6	822,333
605	821,733
605,4	848,533
605,9	810,133
606,3	810,733
606,8	830,133
607,2	786,333
607,7	796,533
608,1	813,133
608,6	762,333
609	790,333
609,4	788,333
609,9	786,733
610,3	788,733
610,8	755,733
611,2	806,333
611,7	785,133
612,1	756,333
612,6	750,933
613	768,133
613,4	753,933
613,9	750,933
614,3	764,933
614,8	749,133
615,2	730,933
615,7	737,933
616,1	747,533
616,6	730,333
617	733,733
617,4	743,733
617,9	750,333
618,3	710,133
618,8	693,133
619,2	715,933
619,7	730,533
620,1	723,333
620,5	690,333
621	735,933
621,4	677,933
621,9	687,733
622,3	653,533
622,8	710,733
623,2	678,133
623,6	667,133
624,1	678,533
624,5	676,933
625	662,933
625,4	650,733
625,9	648,933
626,3	631,933
626,8	628,133
627,2	643,733
627,6	660,533
628,1	637,733
628,5	633,533
629	630,333
629,4	594,533
629,9	632,133
630,3	613,733
630,7	611,333
631,2	606,333
631,6	627,933
632,1	611,533
632,5	621,733
633	576,333
633,4	580,733
633,8	610,533
634,3	589,533
634,7	576,733
635,2	578,733
635,6	598,933
636,1	590,133
636,5	593,933
636,9	572,333
637,4	566,133
637,8	541,933
638,3	543,733
638,7	555,733
639,2	517,933
639,6	560,933
640	526,733
640,5	540,733
640,9	520,933
641,4	529,533
641,8	523,333
642,2	522,933
642,7	484,333
643,1	495,333
643,6	494,933
644	510,733
644,5	527,733
644,9	480,733
645,3	514,733
645,8	511,933
646,2	518,533
646,7	474,933
647,1	473,333
647,6	505,933
648	469,333
648,4	501,733
648,9	470,133
649,3	457,333
649,8	479,333
650,2	494,733
650,6	477,533
651,1	453,533
651,5	463,333
652	419,733
652,4	421,933
652,9	433,733
653,3	426,133
653,7	428,933
654,2	448,733
654,6	439,733
655,1	429,933
655,5	453,333
655,9	390,333
656,4	439,533
656,8	430,533
657,3	429,333
657,7	395,133
658,2	442,133
658,6	407,133
659	408,133
659,5	384,733
659,9	393,133
660,4	403,933
660,8	425,733
661,2	372,733
661,7	373,933
662,1	394,133
662,6	363,533
663	355,733
663,4	382,933
663,9	396,333
664,3	398,133
664,8	348,333
665,2	357,333
665,6	365,533
666,1	369,733
666,5	332,933
667	357,733
667,4	340,733
667,9	343,733
668,3	324,933
668,7	358,533
669,2	337,733
669,6	317,733
670,1	346,133
670,5	363,133
670,9	308,933
671,4	325,533
671,8	330,933
672,3	338,133
672,7	312,933
673,1	326,533
673,6	310,733
674	325,333
674,5	307,933
674,9	313,733
675,3	295,533
675,8	328,933
676,2	300,933
676,7	312,733
677,1	327,733
677,5	283,733
678	334,533
678,4	283,733
678,9	327,133
679,3	268,733
679,7	295,733
680,2	282,333
680,6	276,133
681,1	280,733
681,5	244,133
681,9	307,533
682,4	288,933
682,8	262,733
683,3	272,133
683,7	255,733
684,1	257,533
684,6	260,733
685	281,933
685,5	254,733
685,9	275,333
686,3	238,933
686,8	256,333
687,2	258,533
687,7	253,533
688,1	276,533
688,5	254,133
689	250,133
689,4	243,933
689,9	246,133
690,3	228,333
690,7	222,733
691,2	243,333
691,6	248,933
692	224,133
692,5	251,133
692,9	230,933
693,4	209,333
693,8	250,733
694,2	209,133
694,7	204,133
695,1	221,933
695,6	204,733
696	220,533
696,4	218,733
696,9	200,333
697,3	219,933
697,8	216,733
698,2	218,333
698,6	213,733
699,1	205,933
699,5	171,933
699,9	210,733
700,4	183,133
700,8	196,933
701,3	195,933
701,7	221,133
702,1	177,533
702,6	220,133
703	188,133
703,5	179,333
703,9	175,933
704,3	196,533
704,8	186,533
705,2	180,133
705,6	193,133
706,1	165,533
706,5	179,533
707	145,733
707,4	180,333
707,8	143,333
708,3	180,533
708,7	165,533
709,2	189,333
709,6	152,133
710	203,133
710,5	170,933
710,9	159,333
711,3	143,133
711,8	188,333
712,2	145,733
712,7	145,733
713,1	155,533
713,5	144,533
714	173,933
714,4	183,533
714,8	147,733
715,3	179,933
715,7	127,733
716,2	160,533
716,6	144,533
717	168,333
717,5	155,533
717,9	122,333
718,3	130,333
718,8	129,733
719,2	135,333
719,7	147,333
720,1	141,333
720,5	160,133
721	155,933
721,4	133,533
721,8	131,133
722,3	137,533
722,7	146,333
723,2	109,333
723,6	139,133
724	137,933
724,5	118,933
724,9	108,733
725,3	118,733
725,8	143,933
726,2	123,933
726,7	147,533
727,1	123,733
727,5	116,733
728	87,133
728,4	128,933
728,8	124,933
729,3	122,533
729,7	104,733
730,1	102,133
730,6	114,333
731	126,533
731,5	90,733
731,9	96,933
732,3	124,333
732,8	112,733
733,2	122,533
733,6	84,533
734,1	121,533
734,5	140,733
734,9	86,133
735,4	84,333
735,8	106,733
736,3	106,133
736,7	86,533
737,1	77,733
737,6	97,533
738	122,533
738,4	83,533
738,9	93,133
739,3	106,733
739,7	90,133
740,2	80,933
740,6	94,733
741,1	110,733
741,5	84,133
741,9	96,333
742,4	112,533
742,8	111,133
743,2	118,133
743,7	89,133
744,1	106,933
744,5	99,133
745	100,333
745,4	88,133
745,8	72,333
746,3	101,133
746,7	76,533
747,2	71,333
747,6	118,933
748	78,933
748,5	84,333
748,9	68,133
749,3	68,533
749,8	58,733
750,2	80,133
750,6	107,333
751,1	73,933
751,5	98,733
751,9	43,133
752,4	71,933
752,8	79,533
753,3	77,733
753,7	71,333
754,1	73,933
754,6	80,133
755	78,333
755,4	68,933
755,9	82,533
756,3	70,933
756,7	72,733
757,2	92,933
757,6	45,733
758	76,933
758,5	67,733
758,9	97,733
759,3	60,933
759,8	52,933
760,2	59,133
760,6	50,733
761,1	97,533
761,5	55,933
761,9	76,333
762,4	46,333
762,8	59,933
763,3	46,533
763,7	56,733
764,1	75,133
764,6	51,133
765	49,533
765,4	72,133
765,9	61,933
766,3	54,133
766,7	60,133
767,2	61,533
767,6	70,333
768	78,333
768,5	67,533
768,9	47,333
769,3	77,533
769,8	50,933
770,2	32,133
770,6	51,533
771,1	55,733
771,5	69,533
771,9	44,933
772,4	85,733
772,8	63,133
773,2	26,133
773,7	58,533
774,1	73,533
774,5	63,533
775	80,333
775,4	59,533
775,8	46,533
776,3	27,133
776,7	40,333
777,1	59,133
777,6	65,333
778	48,933
778,4	36,933
778,9	47,333
779,3	47,333
779,7	67,333
780,2	56,133
780,6	35,933
781	57,933
781,5	36,333
781,9	59,333
782,3	56,333
782,8	44,333
783,2	22,733
783,6	32,133
784,1	43,533
784,5	57,333
784,9	34,733
785,4	54,333
785,8	29,333
786,2	29,933
786,7	39,533
787,1	65,733
787,5	40,733
788	66,933
788,4	22,333
788,8	48,333
789,3	66,733
789,7	28,733
790,1	57,733
790,6	22,133
791	58,133
791,4	39,933
791,9	25,733
792,3	25,333
792,7	30,933
793,2	27,933
793,6	45,733
794	34,333
794,5	23,533
794,9	37,733
795,3	46,133
795,8	27,533
796,2	35,133
796,6	37,133
797,1	-0,267
797,5	80,933
797,9	31,533
798,4	40,733
798,8	20,133
799,2	24,933
799,7	40,733
800,1	70,533
800,5	49,733
801	31,933
801,4	43,933
801,8	0,933
802,2	12,133
802,7	33,533
803,1	77,333
803,5	34,333
804	48,733
804,4	49,133
804,8	32,733
805,3	8,933
805,7	29,733
806,1	26,533
806,6	15,533
807	58,733
807,4	48,733
807,9	44,133
808,3	34,533
808,7	15,933
809,2	21,533
809,6	18,933
810	43,533
810,4	39,133
810,9	52,933
811,3	41,533
811,7	22,933
812,2	43,733
812,6	51,933
813	10,333
813,5	13,533
813,9	47,533
814,3	50,333
814,8	26,733
815,2	11,733
815,6	47,333
816,1	3,533
816,5	18,533
816,9	53,533
817,3	25,933
817,8	34,133
818,2	38,133
818,6	8,133
819,1	29,533
819,5	11,133
819,9	18,533
820,4	9,133
820,8	16,733
821,2	40,733
821,7	32,733
822,1	27,933
822,5	16,133
822,9	33,533
823,4	27,533
823,8	38,533
824,2	15,333
824,7	4,933
825,1	21,133
825,5	31,933
826	33,933
826,4	1,733
826,8	20,333
827,3	11,733
827,7	13,533
828,1	9,533
828,5	42,733
829	17,333
829,4	9,333
829,8	31,133
830,3	31,133
830,7	43,333
831,1	30,133
831,6	8,533
832	17,933
832,4	10,133
832,8	5,333
833,3	12,933
833,7	15,533
834,1	23,533
834,6	24,733
835	23,333
835,4	40,333
835,8	48,133
836,3	35,333
836,7	10,333
837,1	9,533
837,6	7,133
838	35,533
838,4	7,733
838,9	42,733
839,3	6,333
839,7	16,133
840,1	26,933
840,6	27,733
841	36,133
841,4	13,533
841,9	17,733
842,3	12,333
842,7	34,333
843,1	45,733
843,6	-2,267
844	2,933
844,4	30,933
844,9	2,933
845,3	15,733
845,7	24,133
846,2	10,333
846,6	8,133
847	8,533
847,4	29,533
847,9	17,533
848,3	8,533
848,7	24,133
849,2	3,933
849,6	20,333
850	14,533
850,4	31,533
850,9	27,333
851,3	12,533
851,7	-3,267
852,2	0,733
852,6	-17,267
853	21,933
853,4	-2,667
853,9	-21,267
854,3	-12,467
854,7	25,533
855,2	11,933
855,6	13,733
856	15,333
856,4	16,533
856,9	-0,867
857,3	8,333
857,7	-32,667
858,2	36,133
858,6	10,133
859	44,733
859,4	33,333
859,9	-1,267
860,3	-14,667
860,7	-17,667
861,1	-8,867
861,6	-22,467
862	35,133
862,4	-36,467
862,9	8,333
863,3	33,333
863,7	3,533
864,1	21,333
864,6	14,533
865	18,733
865,4	8,733
865,9	-3,467
866,3	15,933
866,7	23,133
867,1	5,533
867,6	-3,467
868	9,733
868,4	11,533
868,8	-10,267
869,3	0,133
869,7	6,133
870,1	14,533
870,6	4,133
871	4,733
871,4	-8,067
871,8	13,133
872,3	175,333
872,7	17,533
873,1	1,733
873,5	22,333
874	22,733
874,4	3,933
874,8	12,533
875,3	38,533
875,7	-9,867
876,1	19,533
876,5	4,533
877	15,333
877,4	-22,867
877,8	6,533
878,2	22,533
878,7	13,333
879,1	9,933
879,5	2,933
879,9	-20,067
880,4	13,733
880,8	33,533
881,2	22,133
881,7	21,533
882,1	25,933
882,5	28,533
882,9	22,533
883,4	21,733
883,8	16,333
884,2	9,933
884,6	-1,267
885,1	1,933
885,5	28,933
885,9	18,133
886,3	-27,067
886,8	18,733
887,2	5,933
887,6	-9,667
888	7,133
888,5	21,133
888,9	41,333
889,3	-8,667
889,8	7,133
890,2	36,533
890,6	-26,067
891	-28,667
891,5	-11,267
891,9	1,733
892,3	-5,467
892,7	39,533
893,2	13,333
893,6	-15,267
894	0,533
894,4	8,333
894,9	23,733
895,3	19,333
895,7	-3,667
896,1	-17,067
896,6	19,533
897	19,333
897,4	-3,067
897,8	-7,067
898,3	0,733
898,7	35,333
899,1	34,533
899,5	-0,067
900	5,933
900,4	8,133
900,8	-0,667
901,2	-14,467
901,7	31,733
902,1	16,133
902,5	-11,667
902,9	26,933
903,4	-4,267
903,8	3,333
904,2	0,933
904,6	-1,667
905,1	-8,867
905,5	9,133
905,9	-3,267
906,3	19,533
906,8	32,933
907,2	-25,467
907,6	-22,067
908	-12,267
908,5	6,333
908,9	28,133
909,3	23,333
909,7	9,333
910,2	1,133
910,6	5,133
911	-7,267
911,4	-17,467
911,9	10,533
912,3	-12,067
912,7	-4,667
913,1	29,733
913,6	1,533
914	4,933
914,4	-2,667
914,8	-6,667
915,3	13,733
915,7	33,133
916,1	-5,267
916,5	12,533
916,9	-24,267
917,4	4,733
917,8	-6,667
918,2	8,133
918,6	0,733
919,1	-8,267
919,5	23,933
919,9	-18,867
920,3	6,333
920,8	10,933
921,2	-14,267
921,6	2,133
922	-24,867
922,5	6,133
922,9	-19,867
923,3	-9,667
923,7	-8,067
924,2	9,133
924,6	33,933
925	-13,067
925,4	46,733
925,8	28,333
926,3	5,933
926,7	4,133
927,1	-20,867
927,5	-38,667
928	2,733
928,4	12,933
928,8	37,333
929,2	-1,467
929,7	35,333
930,1	0,733
930,5	-6,867
930,9	28,533
931,3	9,333
931,8	2,733
932,2	-18,667
932,6	-15,067
933	-2,267
933,5	1,333
933,9	3,133
934,3	12,933
934,7	-0,267
935,2	9,933
935,6	-24,267
936	-3,467
936,4	-0,067
936,8	26,733
937,3	-0,067
937,7	16,933
938,1	-23,667
938,5	5,933
939	12,733
939,4	-4,467
939,8	12,733
940,2	12,933
940,6	-0,667
941,1	-15,667
941,5	-3,467
941,9	-3,067
942,3	3,933
942,8	15,133
943,2	25,733
943,6	-8,667
944	-7,067
944,4	-2,267
944,9	-28,467
945,3	9,733
945,7	-18,067
946,1	7,333
946,6	11,533
947	-17,067
947,4	18,333
947,8	-7,467
948,2	16,733
948,7	13,133
949,1	-0,867
949,5	-10,667
949,9	16,333
950,3	5,133
950,8	-3,467
951,2	-19,467
951,6	12,333
952	13,733
952,5	1,133
952,9	14,733
953,3	-0,467
953,7	-5,067
954,1	16,533
954,6	24,533
955	26,733
955,4	-10,667
955,8	-9,867
956,2	25,733
956,7	18,733
957,1	16,933
957,5	6,733
957,9	12,733
958,3	43,733
958,8	10,133
959,2	0,133
959,6	17,533
960	3,933
960,5	-14,067
960,9	-38,867
961,3	-17,067
961,7	-4,067
962,1	-10,867
962,6	-18,667
963	3,333
963,4	5,933
963,8	14,533
964,2	22,733
964,7	-0,667
965,1	-2,067
965,5	10,733
965,9	-6,667
966,3	24,933
966,8	5,333
967,2	-1,067
967,6	14,933
968	3,733
968,4	6,733
968,9	5,533
969,3	10,533
969,7	-7,667
970,1	0,533
970,5	-5,467
971	1,333
971,4	40,733
971,8	0,333
972,2	-5,067
972,6	25,733
973,1	-15,067
973,5	-19,467
973,9	10,333
974,3	-9,067
974,7	13,333
975,2	2,733
975,6	6,933
976	20,733
976,4	8,533
976,8	-15,867
977,3	9,133
977,7	13,533
978,1	10,133
978,5	15,533
978,9	42,733
979,4	17,733
979,8	15,333
980,2	21,733
980,6	-6,867
981	9,333
981,5	-5,067
981,9	17,933
982,3	30,133
982,7	22,133
983,1	16,933
983,6	2,933
984	17,533
984,4	-34,867
984,8	-4,867
985,2	11,933
985,6	-2,267
986,1	18,133
986,5	-4,667
986,9	18,533
987,3	-21,667
987,7	8,333
988,2	16,333
988,6	6,533
989	-4,467
989,4	-12,867
989,8	-18,467
990,3	30,533
990,7	-4,067
991,1	4,333
991,5	-0,067
991,9	2,333
992,3	-4,467
992,8	-5,667
993,2	33,733
993,6	1,733
994	-6,467
994,4	-3,267
994,9	13,533
995,3	10,933
995,7	-2,867
996,1	-24,267
996,5	-14,467
996,9	0,533
997,4	17,933
997,8	21,533
998,2	-13,467
998,6	14,533
999	-3,467
999,5	-0,867
999,9	-5,067
1000,3	13,533
1000,7	13,933
1001,1	-2,667
1001,5	-8,667
1002	-12,267
1002,4	18,333
1002,8	12,533
1003,2	19,133
1003,6	4,533
1004	-9,867
1004,5	-14,467
1004,9	16,133
1005,3	-3,467
1005,7	13,333
1006,1	8,533
1006,6	13,733
1007	21,733
1007,4	4,133
1007,8	21,933
1008,2	17,933
1008,6	34,133
1009,1	0,133
1009,5	22,933
1009,9	-19,467
1010,3	6,333
1010,7	-10,267
1011,1	-28,867
1011,6	25,333
1012	2,733
1012,4	13,533
1012,8	25,133
1013,2	27,333
1013,6	6,333
1014,1	14,933
1014,5	-4,667
1014,9	2,933
1015,3	3,933
1015,7	-2,867
1016,1	-15,667
1016,6	6,733
1017	9,533
1017,4	-26,867
1017,8	-7,667
1018,2	17,533
1018,6	-7,467
1019,1	-0,867
1019,5	-8,467
1019,9	27,133
1020,3	19,933
1020,7	-1,667
1021,1	-30,867
1021,6	7,933
1022	9,933
1022,4	3,133
1022,8	-2,067
1023,2	-4,467
1023,6	-25,667
1024,1	-10,867
1024,5	-0,467
1024,9	4,533
1025,3	-2,267
1025,7	-7,467
1026,1	2,933
1026,6	18,133
1027	-5,667
1027,4	33,533
1027,8	27,733
1028,2	2,333
1028,6	-1,267
1029	28,533
1029,5	12,333
1029,9	-37,867
1030,3	19,933
1030,7	-4,867
1031,1	13,933
1031,5	-6,067
1032	-1,267
1032,4	17,133
1032,8	1,733
1033,2	23,333
1033,6	-9,867
1034	-10,867
1034,4	48,733
1034,9	-11,467
1035,3	9,333
1035,7	-17,867
1036,1	13,933
1036,5	-1,067
1036,9	19,133
1037,4	-2,467
1037,8	-11,267
1038,2	16,733
1038,6	5,533
1039	-2,067
1039,4	17,333
1039,8	3,533
1040,3	14,333
1040,7	3,733
1041,1	-9,267
1041,5	-4,267
1041,9	26,933
1042,3	-2,467
1042,7	-4,667
1043,2	-22,267
1043,6	36,533
1044	-4,867
1044,4	11,533
1044,8	-17,067
1045,2	-8,067
1045,6	13,133
1046,1	1,133
1046,5	-7,267
1046,9	-20,667
1047,3	18,933
1047,7	15,133
1048,1	16,733
1048,5	2,533
1049	-29,267
1049,4	1,133
1049,8	9,733
1050,2	-12,067
1050,6	21,733
1051	3,533
1051,4	2,333
1051,9	2,733
1052,3	-29,267
1052,7	26,733
1053,1	-2,067
1053,5	15,733
1053,9	-3,467
1054,3	-11,667
1054,8	-24,667
1055,2	23,333
1055,6	-21,867
1056	2,133
1056,4	4,333
1056,8	5,533
1057,2	13,533
1057,6	-4,067
1058,1	-15,467
1058,5	23,733
1058,9	24,733
1059,3	12,533
1059,7	-5,867
1060,1	-13,067
1060,5	0,933
1061	7,933
1061,4	30,933
1061,8	-22,667
1062,2	-9,467
1062,6	5,933
1063	7,333
1063,4	-9,867
1063,8	-3,267
1064,3	-2,667
1064,7	19,533
1065,1	-17,867
1065,5	24,933
1065,9	-23,067
1066,3	24,333
1066,7	-4,667
1067,1	-9,867
1067,6	3,933
1068	32,533
1068,4	18,133
1068,8	-7,867
1069,2	5,733
1069,6	38,733
1070	22,133
1070,4	-22,267
1070,9	23,733
1071,3	14,133
1071,7	12,933
1072,1	1,533
1072,5	-6,267
1072,9	8,533
1073,3	-25,667
1073,7	19,333
1074,2	-19,067
1074,6	13,733
1075	6,133
1075,4	-10,667
1075,8	8,333
1076,2	-8,667
1076,6	-5,467
1077	20,533
1077,5	18,533
1077,9	12,933
1078,3	1,533
1078,7	6,133
1079,1	7,933
1079,5	13,733
1079,9	9,333
1080,3	-29,067
1080,7	-7,867
1081,2	-3,667
1081,6	-19,067
1082	23,933
1082,4	43,133
1082,8	-24,467
1083,2	10,933
1083,6	-12,267
1084	46,533
1084,5	41,133
1084,9	18,933
1085,3	2,733
1085,7	3,133
1086,1	-4,267
1086,5	8,133
1086,9	15,333
1087,3	5,933
1087,7	-0,267
1088,2	-1,267
1088,6	-18,667
1089	-1,067
1089,4	2,333
1089,8	36,933
1090,2	-11,667
1090,6	2,533
1091	9,933
1091,4	-11,267
1091,9	18,933
1092,3	3,733
1092,7	20,733
1093,1	-10,467
1093,5	1,933
1093,9	1,933
1094,3	-8,667
1094,7	9,733
1095,1	-8,867
1095,5	8,733
1096	12,733
1096,4	-4,267
1096,8	15,933
1097,2	-4,667
1097,6	-1,067
1098	-14,267
1098,4	-2,267
1098,8	8,133
1099,2	-5,667
1099,6	-19,667
1100,1	-31,867
1100,5	3,533
1100,9	1,733
1101,3	-3,467
1101,7	7,933
1102,1	9,533
1102,5	2,733
1102,9	-9,667
1103,3	18,333
1103,7	-20,867
1104,2	-1,867
1104,6	0,533
1105	28,333
1105,4	18,533
1105,8	21,133
1106,2	9,333
1106,6	-1,467
1107	-2,267
1107,4	1,133
1107,8	-0,467
1108,3	1,733
