Data from Subt2_00005.txt Node
Date: Wed Aug 02 18:53:37 MSK 2023
User: vat
Spectrometer: MAYP114033
Trigger mode: 0
Integration Time (sec): 7,000000E-1
Scans to average: 5
Electric dark correction enabled: true
Nonlinearity correction enabled: false
Boxcar width: 0
XAxis mode: Wavelengths
Number of Pixels in Spectrum: 2068
>>>>>Begin Spectral Data<<<<<
199,4	1,1
199,9	-0,7
200,4	-1,3
200,8	-0,3
201,3	-5,1
201,8	20,7
202,2	10,3
202,7	-10,5
203,2	-9,7
203,6	-11,1
204,1	10,9
204,6	-7,1
205	23,5
205,5	4,3
206	6,1
206,4	13,3
206,9	6,5
207,4	22,3
207,8	19,7
208,3	0,1
208,8	-6,1
209,2	1,7
209,7	-6,9
210,2	13,7
210,6	7,1
211,1	9,1
211,5	-15,9
212	18,7
212,5	-13,1
212,9	10,9
213,4	-31,1
213,9	-4,1
214,3	11,1
214,8	17,3
215,3	8,1
215,7	15,7
216,2	-9,3
216,7	24,5
217,1	3,9
217,6	0,3
218,1	4,3
218,5	-27,1
219	31,3
219,5	24,3
219,9	13,9
220,4	7,3
220,9	21,3
221,3	4,9
221,8	9,5
222,3	-1,5
222,7	-19,9
223,2	8,3
223,6	25,5
224,1	4,5
224,6	-11,7
225	-7,5
225,5	54,1
226	15,3
226,4	37,9
226,9	10,9
227,4	34,7
227,8	-1,3
228,3	-9,7
228,8	25,7
229,2	16,3
229,7	14,7
230,2	4,1
230,6	11,7
231,1	16,3
231,5	15,3
232	4,5
232,5	-1,9
232,9	-54,9
233,4	14,3
233,9	-21,1
234,3	-2,7
234,8	34,9
235,3	10,7
235,7	13,7
236,2	20,3
236,7	-3,3
237,1	16,7
237,6	16,1
238,1	-22,1
238,5	12,1
239	5,9
239,4	-27,9
239,9	-1,9
240,4	6,1
240,8	3,5
241,3	19,1
241,8	39,5
242,2	2,7
242,7	3,1
243,2	15,7
243,6	-4,1
244,1	29,1
244,6	29,9
245	5,1
245,5	-5,5
245,9	38,7
246,4	-0,7
246,9	-4,3
247,3	16,9
247,8	32,5
248,3	10,1
248,7	2,9
249,2	16,5
249,7	-0,1
250,1	22,5
250,6	-8,7
251	24,9
251,5	-22,5
252	38,7
252,4	13,9
252,9	11,9
253,4	5,5
253,8	-10,3
254,3	45,3
254,8	13,3
255,2	29,9
255,7	27,1
256,1	-18,1
256,6	22,9
257,1	2,9
257,5	-4,9
258	1,7
258,5	-6,9
258,9	2,7
259,4	40,3
259,9	7,3
260,3	19,7
260,8	20,3
261,2	-30,9
261,7	16,3
262,2	23,1
262,6	-0,5
263,1	-9,7
263,6	13,1
264	32,5
264,5	-27,1
264,9	3,7
265,4	9,9
265,9	3,7
266,3	9,3
266,8	36,1
267,3	18,7
267,7	4,5
268,2	8,7
268,7	-7,9
269,1	9,7
269,6	12,1
270	4,3
270,5	10,9
271	11,3
271,4	15,7
271,9	24,9
272,4	4,1
272,8	15,1
273,3	-9,9
273,7	5,5
274,2	18,1
274,7	7,5
275,1	7,9
275,6	27,7
276,1	11,7
276,5	-12,5
277	2,9
277,4	-3,1
277,9	0,3
278,4	-14,1
278,8	40,3
279,3	-2,5
279,8	4,5
280,2	4,3
280,7	-20,7
281,1	17,1
281,6	5,5
282,1	7,3
282,5	-3,5
283	6,9
283,4	-5,5
283,9	3,3
284,4	-1,1
284,8	10,1
285,3	5,3
285,8	28,9
286,2	-10,9
286,7	-12,7
287,1	-15,3
287,6	-12,9
288,1	5,3
288,5	40,5
289	30,1
289,5	-2,1
289,9	21,3
290,4	19,1
290,8	17,5
291,3	26,7
291,8	-23,1
292,2	-9,7
292,7	2,1
293,1	25,3
293,6	-7,9
294,1	4,7
294,5	3,5
295	9,7
295,5	5,3
295,9	-4,3
296,4	37,9
296,8	-5,7
297,3	-30,7
297,8	45,7
298,2	5,5
298,7	1,1
299,1	38,3
299,6	5,3
300,1	-16,7
300,5	15,1
301	52,7
301,5	-2,5
301,9	28,3
302,4	2,9
302,8	4,3
303,3	-5,7
303,8	25,7
304,2	5,1
304,7	12,3
305,1	16,1
305,6	29,9
306,1	-2,9
306,5	16,9
307	5,9
307,4	23,3
307,9	6,3
308,4	14,5
308,8	3,1
309,3	-24,7
309,8	26,3
310,2	18,7
310,7	-22,1
311,1	8,7
311,6	5,5
312,1	3,5
312,5	42,1
313	21,1
313,4	13,5
313,9	-0,3
314,4	8,7
314,8	-4,9
315,3	31,5
315,7	-7,3
316,2	-1,9
316,7	-29,9
317,1	5,9
317,6	23,7
318	23,7
318,5	-15,3
319	18,9
319,4	20,5
319,9	25,5
320,3	6,3
320,8	-12,1
321,3	10,5
321,7	16,1
322,2	6,5
322,6	-1,5
323,1	16,3
323,6	-2,5
324	44,7
324,5	27,3
324,9	19,3
325,4	12,3
325,9	-3,3
326,3	12,5
326,8	-8,3
327,2	-3,1
327,7	27,1
328,2	-11,5
328,6	7,7
329,1	17,5
329,5	-22,1
330	28,1
330,5	-1,7
330,9	14,9
331,4	-0,9
331,8	-7,9
332,3	23,3
332,8	-0,3
333,2	-6,7
333,7	-21,1
334,1	8,7
334,6	22,3
335,1	-4,3
335,5	10,5
336	-7,9
336,4	20,1
336,9	18,5
337,4	-4,7
337,8	9,9
338,3	12,9
338,7	15,5
339,2	-14,9
339,7	35,3
340,1	13,9
340,6	33,3
341	38,7
341,5	9,1
342	44,7
342,4	5,1
342,9	0,9
343,3	-2,7
343,8	10,3
344,2	-7,7
344,7	12,9
345,2	8,1
345,6	-21,7
346,1	-10,5
346,5	26,7
347	25,5
347,5	-5,7
347,9	-4,5
348,4	-2,7
348,8	13,1
349,3	13,9
349,8	36,9
350,2	4,9
350,7	7,5
351,1	-18,7
351,6	14,5
352	17,5
352,5	-6,5
353	-4,5
353,4	1,7
353,9	27,9
354,3	32,7
354,8	32,5
355,3	10,1
355,7	42,7
356,2	42,1
356,6	42,1
357,1	41,9
357,5	78,1
358	85,5
358,5	67,9
358,9	96,5
359,4	87,7
359,8	105,7
360,3	135,7
360,8	154,9
361,2	148,9
361,7	205,3
362,1	214,9
362,6	252,1
363	272,1
363,5	310,7
364	342,7
364,4	388,3
364,9	394,5
365,3	443,3
365,8	484,1
366,3	530,9
366,7	544,1
367,2	574,5
367,6	599,1
368,1	600,1
368,5	656,9
369	643,5
369,5	633,5
369,9	631,5
370,4	604,7
370,8	607,1
371,3	564,7
371,7	553,5
372,2	543,3
372,7	498,7
373,1	505,9
373,6	469,1
374	446,9
374,5	422,3
374,9	403,3
375,4	336,9
375,9	355,9
376,3	255,3
376,8	298,5
377,2	251,1
377,7	225,7
378,2	225,5
378,6	197,7
379,1	173,1
379,5	156,1
380	148,5
380,4	121,1
380,9	136,5
381,4	139,1
381,8	111,9
382,3	107,5
382,7	111,5
383,2	67,3
383,6	121,1
384,1	92,5
384,6	97,3
385	59,5
385,5	56,5
385,9	95,3
386,4	78,5
386,8	70,1
387,3	38,5
387,7	59,5
388,2	60,9
388,7	46,5
389,1	41,9
389,6	24,3
390	25,1
390,5	37,3
390,9	14,3
391,4	51,7
391,9	44,7
392,3	13,9
392,8	7,5
393,2	50,3
393,7	27,1
394,1	3,5
394,6	54,5
395,1	34,5
395,5	23,1
396	34,7
396,4	25,9
396,9	27,5
397,3	24,1
397,8	20,9
398,2	42,3
398,7	10,3
399,2	5,5
399,6	71,1
400,1	27,3
400,5	-9,3
401	32,1
401,4	31,9
401,9	16,5
402,4	-4,9
402,8	16,7
403,3	5,9
403,7	17,9
404,2	31,3
404,6	41,1
405,1	64,1
405,5	2,3
406	14,9
406,5	33,1
406,9	33,7
407,4	42,7
407,8	46,9
408,3	39,9
408,7	63,5
409,2	13,5
409,6	47,3
410,1	24,9
410,6	31,9
411	10,7
411,5	49,3
411,9	47,9
412,4	40,3
412,8	52,7
413,3	47,1
413,7	74,3
414,2	85,1
414,7	54,9
415,1	73,9
415,6	86,9
416	85,3
416,5	71,7
416,9	93,5
417,4	139,9
417,8	133,9
418,3	122,1
418,8	129,1
419,2	121,7
419,7	133,9
420,1	157,9
420,6	163,7
421	147,5
421,5	158,5
421,9	158,9
422,4	168,3
422,8	216,1
423,3	181,1
423,8	241,7
424,2	242,7
424,7	266,7
425,1	234,1
425,6	269,5
426	253,1
426,5	274,3
426,9	258,5
427,4	294,1
427,9	328,7
428,3	316,7
428,8	374,5
429,2	378,9
429,7	389,1
430,1	414,5
430,6	439,1
431	471,5
431,5	485,5
431,9	472,5
432,4	537,5
432,8	552,9
433,3	577,3
433,8	613,3
434,2	650,9
434,7	655,7
435,1	707,9
435,6	747,5
436	765,7
436,5	813,7
436,9	847,7
437,4	880,1
437,8	935,5
438,3	988,3
438,8	1021,1
439,2	1050,9
439,7	1117,3
440,1	1129,9
440,6	1214,5
441	1271,1
441,5	1320,3
441,9	1407,3
442,4	1407,7
442,8	1528,5
443,3	1552,3
443,7	1634,5
444,2	1699,1
444,7	1758,7
445,1	1813,5
445,6	1914,7
446	1971,3
446,5	2047,9
446,9	2154,9
447,4	2189,3
447,8	2273,5
448,3	2371,1
448,7	2438,9
449,2	2551,1
449,6	2625,3
450,1	2692,7
450,6	2798,9
451	2908,1
451,5	2996,5
451,9	3097,3
452,4	3184,1
452,8	3315,5
453,3	3379,5
453,7	3489,3
454,2	3631,5
454,6	3722,5
455,1	3832,3
455,5	3969,7
456	4038,1
456,4	4143,3
456,9	4256,3
457,3	4324,5
457,8	4525,5
458,3	4633,9
458,7	4748,1
459,2	4869,9
459,6	4972,3
460,1	5092,9
460,5	5224,5
461	5350,7
461,4	5470,1
461,9	5605,9
462,3	5746,1
462,8	5840,7
463,2	5986,9
463,7	6086,5
464,1	6233,1
464,6	6355,1
465	6509,9
465,5	6576,7
466	6725,7
466,4	6890,3
466,9	6974,1
467,3	7134,3
467,8	7215,1
468,2	7410,3
468,7	7468,9
469,1	7596,3
469,6	7693,3
470	7833,7
470,5	7959,5
470,9	8132,3
471,4	8162,3
471,8	8266,5
472,3	8419,7
472,7	8473,3
473,2	8632,9
473,6	8787,5
474,1	8818,7
474,5	8977,3
475	9028,3
475,4	9164,1
475,9	9262,3
476,4	9390,3
476,8	9433,3
477,3	9500,1
477,7	9601,1
478,2	9705,9
478,6	9758,9
479,1	9870,1
479,5	9916,7
480	10057,9
480,4	10061,9
480,9	10119,7
481,3	10189,7
481,8	10246,5
482,2	10251,9
482,7	10409,5
483,1	10457,1
483,6	10480,5
484	10493,9
484,5	10548,5
484,9	10597,3
485,4	10609,1
485,8	10692,3
486,3	10697,5
486,7	10705,5
487,2	10729,3
487,6	10763,1
488,1	10782,5
488,5	10770,7
489	10829,9
489,4	10768,1
489,9	10760,5
490,4	10806,5
490,8	10777,3
491,3	10750,7
491,7	10760,7
492,2	10718,1
492,6	10772,5
493,1	10750,9
493,5	10728,1
494	10707,7
494,4	10661,1
494,9	10610,1
495,3	10561,5
495,8	10547,5
496,2	10527,7
496,7	10401,7
497,1	10436,9
497,6	10377,1
498	10315,9
498,5	10254,3
498,9	10277,5
499,4	10242,3
499,8	10160,3
500,3	10113,9
500,7	10074,7
501,2	9971,9
501,6	9935,5
502,1	9911,1
502,5	9864,7
503	9757,1
503,4	9738,3
503,9	9646,5
504,3	9607,5
504,8	9586,5
505,2	9493,5
505,7	9385,3
506,1	9327,9
506,6	9267,7
507	9218,5
507,5	9044,9
507,9	9041,9
508,4	9008,7
508,8	8917,1
509,3	8893,7
509,7	8759,3
510,2	8703,3
510,6	8600,1
511,1	8564,1
511,5	8479,3
512	8369,5
512,4	8323,3
512,9	8225,9
513,3	8194,5
513,8	8052,1
514,2	8028,5
514,7	7934,7
515,1	7908,3
515,6	7743,5
516	7689,1
516,5	7643,5
516,9	7502,5
517,4	7442,5
517,8	7416,3
518,3	7284,5
518,7	7262,5
519,2	7162,3
519,6	7070,5
520,1	6962,5
520,5	6888,5
521	6837,7
521,4	6774,5
521,9	6674,3
522,3	6576,9
522,8	6550,9
523,2	6499,3
523,7	6364,7
524,1	6298,9
524,6	6247,5
525	6176,3
525,5	6047,7
525,9	6020,3
526,4	5986,7
526,8	5892,9
527,3	5837,5
527,7	5732,1
528,2	5728,7
528,6	5634,1
529,1	5563,3
529,5	5519,5
530	5438,9
530,4	5397,5
530,9	5330,3
531,3	5253,1
531,8	5242,1
532,2	5161,5
532,6	5075,1
533,1	5023,7
533,5	4981,7
534	4919,1
534,4	4839,7
534,9	4771,3
535,3	4759,1
535,8	4681,1
536,2	4671,5
536,7	4590,9
537,1	4545,9
537,6	4489,1
538	4430,9
538,5	4411,9
538,9	4337,7
539,4	4291,3
539,8	4285,9
540,3	4188,3
540,7	4140,9
541,2	4110,9
541,6	4061,3
542,1	4050,3
542,5	3941,1
543	3963,5
543,4	3842,3
543,9	3819,7
544,3	3800,9
544,8	3768,1
545,2	3727,9
545,7	3711,7
546,1	3613,9
546,5	3619,3
547	3540,9
547,4	3535,1
547,9	3480,7
548,3	3451,3
548,8	3441,9
549,2	3371,1
549,7	3352,9
550,1	3294,9
550,6	3277,7
551	3245,9
551,5	3186,3
551,9	3138,7
552,4	3125,7
552,8	3092,3
553,3	3131,5
553,7	3087,5
554,2	3024,1
554,6	3021,9
555,1	2999,1
555,5	2924,3
555,9	2886,1
556,4	2895,3
556,8	2885,3
557,3	2830,7
557,7	2762,7
558,2	2756,7
558,6	2752,1
559,1	2734,5
559,5	2695,1
560	2670,1
560,4	2647,3
560,9	2605,5
561,3	2610,9
561,8	2612,5
562,2	2569,3
562,7	2538,7
563,1	2530,3
563,6	2487,9
564	2469,9
564,4	2451,5
564,9	2446,7
565,3	2406,9
565,8	2371,5
566,2	2374,3
566,7	2375,3
567,1	2352,5
567,6	2321,5
568	2289,7
568,5	2269,9
568,9	2259,3
569,4	2243,3
569,8	2220,1
570,3	2197,5
570,7	2197,5
571,1	2118,9
571,6	2174,1
572	2148,5
572,5	2070,1
572,9	2093,1
573,4	2081,1
573,8	2031,3
574,3	2031,9
574,7	2026,7
575,2	1989,3
575,6	1978,9
576,1	1993,7
576,5	1980,7
576,9	1930,3
577,4	1911,9
577,8	1913,5
578,3	1893,9
578,7	1902,3
579,2	1859,7
579,6	1881,1
580,1	1854,9
580,5	1800,1
581	1834,9
581,4	1796,5
581,9	1754,3
582,3	1812,3
582,7	1762,7
583,2	1777,7
583,6	1753,7
584,1	1745,1
584,5	1674,9
585	1709,3
585,4	1678,5
585,9	1671,7
586,3	1652,9
586,8	1633,9
587,2	1655,1
587,6	1613,7
588,1	1586,5
588,5	1626,1
589	1571,5
589,4	1589,5
589,9	1585,3
590,3	1583,5
590,8	1558,9
591,2	1560,3
591,7	1535,3
592,1	1493,9
592,5	1496,3
593	1512,3
593,4	1470,3
593,9	1479,3
594,3	1460,5
594,8	1456,7
595,2	1463,9
595,7	1455,7
596,1	1422,3
596,6	1437,3
597	1418,1
597,4	1416,9
597,9	1432,7
598,3	1408,5
598,8	1361,5
599,2	1386,9
599,7	1353,3
600,1	1332,3
600,6	1349,1
601	1360,7
601,4	1331,1
601,9	1296,9
602,3	1323,7
602,8	1302,9
603,2	1280,1
603,7	1320,3
604,1	1281,9
604,6	1276,1
605	1269,1
605,4	1255,9
605,9	1256,9
606,3	1241,5
606,8	1283,5
607,2	1229,1
607,7	1211,1
608,1	1230,3
608,6	1182,1
609	1215,1
609,4	1175,3
609,9	1208,7
610,3	1177,9
610,8	1142,3
611,2	1178,3
611,7	1145,7
612,1	1131,3
612,6	1151,7
613	1122,7
613,4	1148,7
613,9	1092,5
614,3	1090,7
614,8	1106,7
615,2	1101,7
615,7	1085,3
616,1	1077,9
616,6	1043,9
617	1074,9
617,4	1094,1
617,9	1054,7
618,3	1070,5
618,8	1014,5
619,2	1034,9
619,7	1066,7
620,1	1029,7
620,5	997,1
621	1007,9
621,4	998,9
621,9	987,5
622,3	952,9
622,8	1031,3
623,2	969,9
623,6	938,9
624,1	952,3
624,5	934,5
625	928,9
625,4	938,3
625,9	957,5
626,3	915,7
626,8	938,3
627,2	947,1
627,6	914,9
628,1	891,7
628,5	905,1
629	914,9
629,4	869,3
629,9	915,1
630,3	883,1
630,7	886,3
631,2	846,9
631,6	873,1
632,1	856,1
632,5	853,3
633	824,9
633,4	834,5
633,8	842,9
634,3	832,5
634,7	784,3
635,2	824,9
635,6	820,5
636,1	795,9
636,5	824,7
636,9	797,5
637,4	789,3
637,8	764,5
638,3	809,1
638,7	765,1
639,2	764,5
639,6	797,5
640	745,1
640,5	750,9
640,9	742,5
641,4	759,1
641,8	758,9
642,2	738,9
642,7	716,1
643,1	699,9
643,6	729,9
644	704,7
644,5	714,5
644,9	672,5
645,3	720,5
645,8	714,5
646,2	715,7
646,7	691,3
647,1	667,7
647,6	688,1
648	676,5
648,4	662,9
648,9	672,3
649,3	674,3
649,8	651,5
650,2	674,5
650,6	649,5
651,1	664,5
651,5	647,3
652	633,3
652,4	630,9
652,9	618,3
653,3	610,9
653,7	602,9
654,2	633,5
654,6	604,5
655,1	603,3
655,5	622,7
655,9	593,5
656,4	618,9
656,8	597,7
657,3	601,9
657,7	584,5
658,2	585,5
658,6	585,7
659	597,3
659,5	541,9
659,9	554,9
660,4	580,1
660,8	592,9
661,2	553,9
661,7	555,9
662,1	551,3
662,6	578,5
663	534,3
663,4	529,5
663,9	530,3
664,3	526,5
664,8	498,5
665,2	543,9
665,6	518,3
666,1	505,1
666,5	476,7
667	503,1
667,4	493,5
667,9	491,5
668,3	477,5
668,7	488,3
669,2	472,3
669,6	475,3
670,1	444,7
670,5	467,9
670,9	482,1
671,4	474,5
671,8	487,1
672,3	492,1
672,7	464,9
673,1	499,5
673,6	470,3
674	460,5
674,5	479,7
674,9	770,3
675,3	479,7
675,8	436,9
676,2	458,9
676,7	455,5
677,1	446,9
677,5	407,9
678	447,1
678,4	396,5
678,9	442,5
679,3	404,7
679,7	417,3
680,2	398,5
680,6	405,1
681,1	409,1
681,5	408,5
681,9	416,1
682,4	426,1
682,8	406,1
683,3	415,5
683,7	391,1
684,1	411,3
684,6	364,3
685	386,9
685,5	383,1
685,9	409,1
686,3	358,9
686,8	383,1
687,2	374,3
687,7	379,3
688,1	386,9
688,5	376,7
689	359,7
689,4	349,1
689,9	376,1
690,3	348,5
690,7	366,1
691,2	363,5
691,6	364,7
692	335,7
692,5	347,7
692,9	349,3
693,4	364,9
693,8	345,5
694,2	337,1
694,7	311,3
695,1	322,5
695,6	324,9
696	354,3
696,4	312,3
696,9	315,1
697,3	303,7
697,8	329,3
698,2	323,1
698,6	337,3
699,1	334,7
699,5	285,5
699,9	318,1
700,4	275,5
700,8	317,5
701,3	327,3
701,7	307,7
702,1	279,1
702,6	300,7
703	318,7
703,5	246,5
703,9	283,9
704,3	296,1
704,8	285,1
705,2	268,1
705,6	310,5
706,1	272,1
706,5	275,9
707	258,5
707,4	256,3
707,8	242,5
708,3	271,7
708,7	271,3
709,2	281,7
709,6	254,5
710	278,3
710,5	278,1
710,9	235,5
711,3	253,9
711,8	305,7
712,2	253,3
712,7	252,9
713,1	239,5
713,5	234,9
714	258,3
714,4	234,5
714,8	233,3
715,3	246,9
715,7	196,3
716,2	241,3
716,6	223,3
717	236,3
717,5	230,7
717,9	209,5
718,3	246,9
718,8	214,1
719,2	225,9
719,7	226,7
720,1	214,7
720,5	220,3
721	225,1
721,4	226,3
721,8	218,9
722,3	221,3
722,7	215,5
723,2	172,7
723,6	231,5
724	216,7
724,5	174,9
724,9	207,3
725,3	211,1
725,8	214,9
726,2	205,9
726,7	186,1
727,1	186,5
727,5	214,9
728	174,5
728,4	198,5
728,8	206,1
729,3	187,3
729,7	154,1
730,1	190,9
730,6	190,9
731	193,5
731,5	169,9
731,9	168,9
732,3	190,3
732,8	204,1
733,2	208,5
733,6	174,7
734,1	193,9
734,5	215,1
734,9	144,5
735,4	182,7
735,8	206,1
736,3	178,7
736,7	147,1
737,1	176,9
737,6	165,3
738	166,5
738,4	165,5
738,9	159,5
739,3	173,5
739,7	153,7
740,2	153,1
740,6	154,1
741,1	152,3
741,5	165,1
741,9	154,7
742,4	163,7
742,8	160,3
743,2	178,3
743,7	161,3
744,1	164,3
744,5	167,7
745	144,1
745,4	150,7
745,8	152,9
746,3	156,7
746,7	152,5
747,2	129,9
747,6	179,3
748	146,1
748,5	148,3
748,9	155,9
749,3	145,3
749,8	108,5
750,2	163,3
750,6	175,5
751,1	121,9
751,5	155,5
751,9	135,1
752,4	126,5
752,8	135,5
753,3	158,1
753,7	149,1
754,1	123,5
754,6	141,3
755	163,5
755,4	141,1
755,9	126,9
756,3	140,1
756,7	154,7
757,2	140,5
757,6	120,9
758	133,5
758,5	129,5
758,9	124,9
759,3	135,9
759,8	128,9
760,2	131,9
760,6	100,1
761,1	129,5
761,5	146,7
761,9	116,1
762,4	122,3
762,8	150,5
763,3	131,7
763,7	127,9
764,1	107,9
764,6	87,9
765	125,7
765,4	129,7
765,9	110,5
766,3	105,1
766,7	114,5
767,2	127,3
767,6	98,5
768	113,1
768,5	119,9
768,9	114,1
769,3	140,3
769,8	105,5
770,2	77,9
770,6	115,1
771,1	119,5
771,5	120,1
771,9	124,5
772,4	113,3
772,8	107,5
773,2	94,3
773,7	112,7
774,1	100,5
774,5	121,3
775	130,5
775,4	92,7
775,8	92,3
776,3	110,1
776,7	79,1
777,1	106,7
777,6	106,3
778	105,3
778,4	93,5
778,9	93,5
779,3	84,1
779,7	98,3
780,2	81,5
780,6	80,9
781	92,9
781,5	96,7
781,9	91,1
782,3	100,9
782,8	75,1
783,2	93,7
783,6	61,7
784,1	69,5
784,5	88,5
784,9	74,5
785,4	97,3
785,8	90,3
786,2	83,9
786,7	70,3
787,1	139,5
787,5	71,7
788	80,9
788,4	72,9
788,8	105,5
789,3	105,5
789,7	108,1
790,1	110,3
790,6	72,5
791	113,9
791,4	88,5
791,9	49,7
792,3	77,5
792,7	69,5
793,2	82,5
793,6	94,9
794	94,1
794,5	80,7
794,9	86,7
795,3	85,5
795,8	65,3
796,2	72,7
796,6	86,1
797,1	37,7
797,5	124,3
797,9	72,3
798,4	77,3
798,8	50,9
799,2	87,1
799,7	56,3
800,1	108,9
800,5	99,9
801	79,1
801,4	78,3
801,8	49,1
802,2	76,5
802,7	67,3
803,1	96,3
803,5	71,5
804	64,5
804,4	55,3
804,8	63,1
805,3	44,5
805,7	58,7
806,1	48,1
806,6	70,5
807	93,1
807,4	85,7
807,9	55,3
808,3	94,9
808,7	54,7
809,2	62,5
809,6	73,3
810	87,5
810,4	77,1
810,9	72,1
811,3	55,9
811,7	49,9
812,2	68,7
812,6	90,1
813	48,9
813,5	62,1
813,9	88,5
814,3	48,7
814,8	82,9
815,2	30,3
815,6	71,7
816,1	42,7
816,5	47,3
816,9	66,9
817,3	29,3
817,8	61,1
818,2	78,7
818,6	44,5
819,1	56,5
819,5	23,1
819,9	53,5
820,4	55,9
820,8	53,9
821,2	68,9
821,7	47,1
822,1	43,1
822,5	42,9
822,9	62,9
823,4	62,7
823,8	70,3
824,2	52,5
824,7	45,9
825,1	34,3
825,5	40,5
826	56,9
826,4	38,3
826,8	50,7
827,3	64,5
827,7	53,3
828,1	22,3
828,5	46,3
829	67,3
829,4	71,5
829,8	48,1
830,3	23,3
830,7	42,3
831,1	51,1
831,6	29,5
832	24,9
832,4	51,7
832,8	49,1
833,3	54,5
833,7	40,7
834,1	55,3
834,6	36,5
835	21,7
835,4	53,1
835,8	40,9
836,3	58,3
836,7	16,7
837,1	40,9
837,6	37,5
838	69,5
838,4	49,1
838,9	63,1
839,3	29,7
839,7	24,5
840,1	35,1
840,6	52,5
841	48,3
841,4	18,9
841,9	22,7
842,3	66,1
842,7	50,7
843,1	33,7
843,6	20,5
844	16,5
844,4	40,5
844,9	19,9
845,3	29,9
845,7	22,7
846,2	27,3
846,6	20,9
847	25,3
847,4	47,3
847,9	13,5
848,3	42,3
848,7	29,1
849,2	23,5
849,6	40,3
850	45,7
850,4	30,7
850,9	41,5
851,3	26,9
851,7	29,1
852,2	32,9
852,6	34,5
853	56,1
853,4	27,7
853,9	20,1
854,3	13,1
854,7	47,3
855,2	18,7
855,6	22,1
856	17,7
856,4	8,5
856,9	25,5
857,3	35,7
857,7	-7,1
858,2	56,3
858,6	15,1
859	54,7
859,4	22,1
859,9	26,9
860,3	23,9
860,7	-1,3
861,1	22,1
861,6	3,5
862	53,9
862,4	18,3
862,9	53,7
863,3	40,1
863,7	17,5
864,1	28,5
864,6	57,9
865	7,9
865,4	17,3
865,9	29,1
866,3	11,3
866,7	16,9
867,1	31,9
867,6	13,3
868	27,3
868,4	40,5
868,8	30,3
869,3	17,7
869,7	11,5
870,1	24,3
870,6	-1,3
871	2,3
871,4	-6,9
871,8	15,7
872,3	351,7
872,7	6,5
873,1	13,9
873,5	26,5
874	43,7
874,4	23,5
874,8	19,1
875,3	51,3
875,7	13,3
876,1	30,9
876,5	31,7
877	30,9
877,4	23,9
877,8	46,5
878,2	37,1
878,7	18,7
879,1	40,1
879,5	11,5
879,9	10,5
880,4	32,3
880,8	40,7
881,2	20,9
881,7	23,7
882,1	17,1
882,5	48,9
882,9	40,7
883,4	-2,5
883,8	31,5
884,2	23,3
884,6	-3,1
885,1	32,9
885,5	15,3
885,9	11,1
886,3	14,3
886,8	23,7
887,2	8,3
887,6	1,9
888	27,7
888,5	25,3
888,9	46,3
889,3	37,7
889,8	21,9
890,2	24,5
890,6	8,9
891	-16,1
891,5	18,9
891,9	8,3
892,3	8,3
892,7	29,1
893,2	9,3
893,6	23,3
894	21,9
894,4	1,7
894,9	48,7
895,3	31,7
895,7	-12,3
896,1	1,7
896,6	19,5
897	0,9
897,4	-13,1
897,8	10,7
898,3	23,5
898,7	35,7
899,1	20,3
899,5	18,5
900	17,9
900,4	32,7
900,8	10,7
901,2	2,1
901,7	25,9
902,1	38,5
902,5	9,1
902,9	37,1
903,4	-13,5
903,8	14,3
904,2	15,9
904,6	22,1
905,1	10,1
905,5	19,5
905,9	0,7
906,3	35,1
906,8	35,1
907,2	-22,5
907,6	-4,7
908	6,5
908,5	13,7
908,9	22,9
909,3	24,7
909,7	1,9
910,2	-7,1
910,6	23,7
911	15,1
911,4	6,9
911,9	-0,3
912,3	2,9
912,7	16,3
913,1	6,3
913,6	-5,7
914	5,7
914,4	3,5
914,8	-9,1
915,3	19,7
915,7	36,9
916,1	37,5
916,5	20,9
916,9	16,7
917,4	-4,3
917,8	-7,9
918,2	11,9
918,6	-11,7
919,1	10,1
919,5	40,3
919,9	-7,9
920,3	33,5
920,8	6,3
921,2	-6,3
921,6	34,7
922	-20,7
922,5	-1,5
922,9	-5,3
923,3	-7,9
923,7	26,9
924,2	6,9
924,6	15,7
925	8,5
925,4	46,7
925,8	29,3
926,3	11,1
926,7	12,3
927,1	9,9
927,5	-14,9
928	25,1
928,4	-0,5
928,8	10,3
929,2	9,3
929,7	8,5
930,1	23,1
930,5	29,9
930,9	19,3
931,3	37,3
931,8	33,7
932,2	15,7
932,6	5,3
933	-2,7
933,5	13,9
933,9	-0,1
934,3	35,1
934,7	-16,5
935,2	-1,9
935,6	-2,5
936	8,1
936,4	-1,9
936,8	30,1
937,3	12,9
937,7	26,3
938,1	-9,3
938,5	33,3
939	18,9
939,4	1,9
939,8	2,3
940,2	-0,3
940,6	-14,1
941,1	-7,5
941,5	-1,1
941,9	-18,7
942,3	0,9
942,8	6,9
943,2	6,1
943,6	5,3
944	18,3
944,4	15,5
944,9	1,7
945,3	-18,7
945,7	4,5
946,1	23,3
946,6	27,3
947	-41,5
947,4	9,5
947,8	4,5
948,2	5,1
948,7	19,9
949,1	-5,1
949,5	9,3
949,9	34,5
950,3	15,5
950,8	15,3
951,2	1,5
951,6	-9,9
952	6,7
952,5	6,3
952,9	-6,9
953,3	38,9
953,7	0,5
954,1	7,3
954,6	10,9
955	-1,9
955,4	13,3
955,8	27,7
956,2	20,1
956,7	19,5
957,1	18,5
957,5	30,9
957,9	-1,3
958,3	17,5
958,8	-13,1
959,2	-2,7
959,6	11,1
960	0,5
960,5	-3,5
960,9	-24,7
961,3	-4,7
961,7	11,1
962,1	7,7
962,6	6,3
963	-26,5
963,4	25,5
963,8	26,9
964,2	-10,5
964,7	9,5
965,1	0,9
965,5	8,1
965,9	-33,9
966,3	33,7
966,8	-9,1
967,2	41,3
967,6	3,9
968	3,7
968,4	0,5
968,9	-0,9
969,3	38,3
969,7	2,3
970,1	-3,7
970,5	6,9
971	-14,5
971,4	31,9
971,8	12,5
972,2	12,7
972,6	26,9
973,1	-12,5
973,5	-7,7
973,9	27,5
974,3	23,5
974,7	7,1
975,2	-0,1
975,6	14,1
976	23,5
976,4	3,3
976,8	26,7
977,3	-3,3
977,7	-12,5
978,1	-5,9
978,5	18,1
978,9	41,1
979,4	21,9
979,8	23,5
980,2	-3,5
980,6	-8,9
981	21,5
981,5	-7,3
981,9	21,5
982,3	28,5
982,7	19,3
983,1	29,7
983,6	7,3
984	24,7
984,4	-13,7
984,8	1,7
985,2	19,1
985,6	-5,9
986,1	2,7
986,5	-0,7
986,9	10,7
987,3	3,1
987,7	31,9
988,2	27,9
988,6	15,5
989	-15,3
989,4	34,9
989,8	12,9
990,3	24,1
990,7	-24,5
991,1	7,1
991,5	16,1
991,9	10,5
992,3	29,1
992,8	10,9
993,2	27,7
993,6	-0,1
994	21,5
994,4	-21,1
994,9	-3,9
995,3	29,7
995,7	-3,5
996,1	-11,5
996,5	15,9
996,9	23,9
997,4	13,5
997,8	37,3
998,2	-9,7
998,6	18,5
999	-2,1
999,5	8,9
999,9	10,1
1000,3	7,9
1000,7	-6,7
1001,1	6,1
1001,5	2,1
1002	-23,1
1002,4	7,1
1002,8	27,5
1003,2	45,5
1003,6	-0,3
1004	3,5
1004,5	-7,1
1004,9	10,7
1005,3	-21,1
1005,7	9,5
1006,1	20,7
1006,6	24,5
1007	5,1
1007,4	16,7
1007,8	19,3
1008,2	11,3
1008,6	34,7
1009,1	12,1
1009,5	1,5
1009,9	-19,5
1010,3	34,1
1010,7	22,1
1011,1	3,3
1011,6	7,1
1012	14,9
1012,4	13,9
1012,8	15,5
1013,2	18,9
1013,6	21,1
1014,1	4,3
1014,5	33,9
1014,9	14,9
1015,3	-11,1
1015,7	0,1
1016,1	-11,7
1016,6	8,7
1017	-15,3
1017,4	-3,5
1017,8	10,1
1018,2	3,1
1018,6	-8,7
1019,1	-3,7
1019,5	12,1
1019,9	16,9
1020,3	19,5
1020,7	-20,3
1021,1	8,9
1021,6	2,3
1022	-15,7
1022,4	-19,1
1022,8	11,1
1023,2	23,1
1023,6	-10,7
1024,1	19,3
1024,5	-16,3
1024,9	4,5
1025,3	-15,7
1025,7	-12,3
1026,1	13,9
1026,6	46,7
1027	30,3
1027,4	23,5
1027,8	16,7
1028,2	20,1
1028,6	7,5
1029	6,9
1029,5	13,1
1029,9	-4,5
1030,3	9,3
1030,7	13,5
1031,1	32,3
1031,5	10,5
1032	-42,5
1032,4	47,9
1032,8	0,9
1033,2	9,7
1033,6	38,3
1034	0,9
1034,4	52,5
1034,9	1,9
1035,3	-9,3
1035,7	-5,3
1036,1	10,5
1036,5	-7,9
1036,9	16,5
1037,4	13,3
1037,8	31,9
1038,2	2,3
1038,6	11,3
1039	36,9
1039,4	0,7
1039,8	25,7
1040,3	11,7
1040,7	16,3
1041,1	-16,5
1041,5	7,5
1041,9	15,3
1042,3	26,9
1042,7	13,7
1043,2	-14,5
1043,6	12,7
1044	2,7
1044,4	24,3
1044,8	-44,3
1045,2	-24,1
1045,6	27,5
1046,1	1,3
1046,5	18,9
1046,9	-1,5
1047,3	23,9
1047,7	49,9
1048,1	22,9
1048,5	31,5
1049	-5,3
1049,4	3,9
1049,8	0,9
1050,2	-6,5
1050,6	-8,9
1051	38,9
1051,4	-7,7
1051,9	43,7
1052,3	14,1
1052,7	60,3
1053,1	14,5
1053,5	36,5
1053,9	39,3
1054,3	16,1
1054,8	6,7
1055,2	13,9
1055,6	12,9
1056	16,9
1056,4	8,3
1056,8	-4,5
1057,2	4,3
1057,6	4,9
1058,1	-14,7
1058,5	20,3
1058,9	36,1
1059,3	11,7
1059,7	-0,1
1060,1	-13,7
1060,5	0,7
1061	28,3
1061,4	55,3
1061,8	-6,9
1062,2	-2,9
1062,6	20,5
1063	10,3
1063,4	11,7
1063,8	-7,3
1064,3	10,1
1064,7	-6,7
1065,1	-25,7
1065,5	26,1
1065,9	9,9
1066,3	17,7
1066,7	-3,9
1067,1	15,5
1067,6	7,9
1068	29,9
1068,4	5,5
1068,8	1,5
1069,2	50,5
1069,6	24,3
1070	19,5
1070,4	20,7
1070,9	57,5
1071,3	27,3
1071,7	-4,7
1072,1	12,5
1072,5	-7,1
1072,9	17,1
1073,3	-21,3
1073,7	6,1
1074,2	-24,3
1074,6	-13,9
1075	9,7
1075,4	-21,5
1075,8	29,9
1076,2	6,7
1076,6	19,3
1077	5,1
1077,5	8,3
1077,9	34,7
1078,3	-9,5
1078,7	20,7
1079,1	14,5
1079,5	7,5
1079,9	-5,3
1080,3	-27,1
1080,7	3,9
1081,2	14,7
1081,6	6,9
1082	6,9
1082,4	49,9
1082,8	-21,5
1083,2	-4,1
1083,6	-17,7
1084	25,5
1084,5	26,1
1084,9	-13,1
1085,3	-19,9
1085,7	34,3
1086,1	14,3
1086,5	6,1
1086,9	45,3
1087,3	-19,5
1087,7	-3,9
1088,2	1,3
1088,6	0,5
1089	14,3
1089,4	-13,5
1089,8	-1,1
1090,2	-22,5
1090,6	12,3
1091	13,9
1091,4	-2,3
1091,9	8,3
1092,3	37,5
1092,7	53,7
1093,1	9,5
1093,5	-11,3
1093,9	-4,9
1094,3	-2,7
1094,7	-0,1
1095,1	10,5
1095,5	18,7
1096	26,3
1096,4	-0,1
1096,8	20,9
1097,2	20,1
1097,6	18,5
1098	-4,9
1098,4	1,3
1098,8	-2,1
1099,2	11,1
1099,6	6,3
1100,1	-11,1
1100,5	-8,1
1100,9	12,1
1101,3	30,9
1101,7	8,1
1102,1	0,9
1102,5	13,7
1102,9	-20,9
1103,3	9,1
1103,7	-4,5
1104,2	-3,5
1104,6	-3,7
1105	8,5
1105,4	18,7
1105,8	9,5
1106,2	4,3
1106,6	12,1
1107	0,7
1107,4	-0,9
1107,8	-1,7
1108,3	3,5
