Data from Subt2_00015.txt Node
Date: Wed Aug 02 19:09:15 MSK 2023
User: vat
Spectrometer: MAYP114033
Trigger mode: 0
Integration Time (sec): 7,000000E-1
Scans to average: 5
Electric dark correction enabled: true
Nonlinearity correction enabled: false
Boxcar width: 0
XAxis mode: Wavelengths
Number of Pixels in Spectrum: 2068
>>>>>Begin Spectral Data<<<<<
199,4	-3,9
199,9	0,5
200,4	-1,7
200,8	-0,7
201,3	-26,3
201,8	-7,3
202,2	-2,5
202,7	22,5
203,2	2,3
203,6	-12,5
204,1	20,1
204,6	14,1
205	-1,9
205,5	10,1
206	0,7
206,4	-19,1
206,9	14,1
207,4	7,1
207,8	3,9
208,3	2,7
208,8	-4,5
209,2	9,5
209,7	-8,1
210,2	20,3
210,6	-2,3
211,1	4,5
211,5	18,9
212	-4,7
212,5	-6,1
212,9	-2,1
213,4	-8,3
213,9	9,5
214,3	2,3
214,8	35,9
215,3	33,1
215,7	-1,5
216,2	16,5
216,7	-2,1
217,1	18,3
217,6	2,7
218,1	17,5
218,5	0,7
219	19,7
219,5	27,9
219,9	-24,9
220,4	16,5
220,9	-22,7
221,3	8,5
221,8	-11,7
222,3	-1,9
222,7	1,9
223,2	28,9
223,6	6,3
224,1	12,5
224,6	24,7
225	13,5
225,5	5,7
226	14,9
226,4	26,3
226,9	15,3
227,4	-4,5
227,8	16,5
228,3	-6,1
228,8	10,1
229,2	16,1
229,7	-7,5
230,2	-15,7
230,6	-41,3
231,1	-1,7
231,5	-5,7
232	-13,1
232,5	-6,9
232,9	-40,3
233,4	-2,9
233,9	0,5
234,3	-7,3
234,8	15,5
235,3	22,3
235,7	12,9
236,2	2,3
236,7	12,5
237,1	6,3
237,6	-43,9
238,1	-23,3
238,5	4,1
239	12,5
239,4	-59,3
239,9	-17,7
240,4	9,9
240,8	-16,3
241,3	-3,1
241,8	14,1
242,2	-15,5
242,7	21,3
243,2	-0,9
243,6	21,3
244,1	-43,3
244,6	15,5
245	4,3
245,5	-7,5
245,9	-9,3
246,4	8,1
246,9	25,5
247,3	-26,9
247,8	20,1
248,3	-7,9
248,7	26,1
249,2	28,9
249,7	-23,1
250,1	37,1
250,6	5,3
251	8,3
251,5	6,1
252	19,3
252,4	-2,3
252,9	-0,1
253,4	-15,9
253,8	8,1
254,3	3,3
254,8	-10,5
255,2	42,5
255,7	2,3
256,1	-7,5
256,6	12,7
257,1	-15,7
257,5	13,1
258	-14,7
258,5	-2,7
258,9	-20,5
259,4	3,7
259,9	-24,1
260,3	0,1
260,8	-7,1
261,2	8,3
261,7	-16,3
262,2	15,3
262,6	-11,5
263,1	37,7
263,6	3,3
264	-16,3
264,5	-3,7
264,9	21,7
265,4	9,9
265,9	-6,3
266,3	-8,5
266,8	18,1
267,3	-1,9
267,7	-2,3
268,2	2,7
268,7	26,9
269,1	37,5
269,6	-16,3
270	-6,7
270,5	-2,3
271	27,1
271,4	-9,7
271,9	11,7
272,4	15,3
272,8	-15,5
273,3	22,9
273,7	12,9
274,2	-8,9
274,7	-30,1
275,1	8,3
275,6	26,9
276,1	-33,1
276,5	-18,1
277	14,5
277,4	11,7
277,9	-13,7
278,4	-4,7
278,8	21,5
279,3	-4,7
279,8	25,5
280,2	0,9
280,7	-10,3
281,1	8,9
281,6	-34,3
282,1	1,3
282,5	4,1
283	6,1
283,4	11,3
283,9	14,5
284,4	6,3
284,8	10,1
285,3	2,5
285,8	20,7
286,2	-13,3
286,7	11,3
287,1	-10,3
287,6	-9,7
288,1	9,1
288,5	-22,9
289	-10,1
289,5	22,9
289,9	46,7
290,4	-4,7
290,8	11,9
291,3	-9,7
291,8	13,3
292,2	8,3
292,7	19,5
293,1	12,1
293,6	20,3
294,1	-5,1
294,5	-17,3
295	-19,7
295,5	-15,5
295,9	-22,1
296,4	-9,5
296,8	12,3
297,3	15,3
297,8	-5,5
298,2	-4,9
298,7	2,9
299,1	-11,5
299,6	2,7
300,1	11,9
300,5	-3,3
301	6,7
301,5	4,1
301,9	3,3
302,4	-16,9
302,8	-10,7
303,3	18,3
303,8	-5,9
304,2	-17,1
304,7	-25,9
305,1	-14,9
305,6	19,5
306,1	-21,5
306,5	-20,1
307	27,1
307,4	16,9
307,9	-24,1
308,4	-3,1
308,8	-3,5
309,3	14,1
309,8	-33,5
310,2	12,5
310,7	67,1
311,1	-15,7
311,6	26,5
312,1	-18,5
312,5	12,1
313	12,1
313,4	15,7
313,9	5,9
314,4	-0,1
314,8	4,1
315,3	4,9
315,7	-7,7
316,2	-25,9
316,7	-16,9
317,1	8,9
317,6	-50,5
318	9,3
318,5	-24,1
319	21,7
319,4	28,1
319,9	-10,9
320,3	16,9
320,8	-6,7
321,3	-23,7
321,7	16,7
322,2	-1,5
322,6	28,9
323,1	15,7
323,6	19,7
324	3,5
324,5	6,3
324,9	5,9
325,4	2,9
325,9	7,5
326,3	27,9
326,8	19,5
327,2	21,1
327,7	9,3
328,2	14,1
328,6	18,5
329,1	4,1
329,5	22,7
330	-20,9
330,5	-11,1
330,9	30,3
331,4	-30,5
331,8	13,5
332,3	-7,5
332,8	5,9
333,2	23,9
333,7	9,7
334,1	30,9
334,6	7,1
335,1	0,3
335,5	9,9
336	33,1
336,4	-19,3
336,9	10,1
337,4	-14,7
337,8	12,7
338,3	14,7
338,7	-6,9
339,2	51,3
339,7	2,9
340,1	12,9
340,6	22,1
341	27,7
341,5	10,7
342	-15,7
342,4	20,3
342,9	24,1
343,3	-1,9
343,8	8,5
344,2	6,1
344,7	-19,9
345,2	51,1
345,6	8,3
346,1	34,7
346,5	13,7
347	9,1
347,5	11,7
347,9	5,9
348,4	24,9
348,8	38,1
349,3	55,1
349,8	18,5
350,2	31,9
350,7	62,3
351,1	63,5
351,6	54,9
352	73,7
352,5	72,3
353	75,7
353,4	125,1
353,9	172,9
354,3	189,7
354,8	262,1
355,3	312,7
355,7	350,1
356,2	427,3
356,6	473,7
357,1	622,3
357,5	735,5
358	828,3
358,5	959,3
358,9	1133,5
359,4	1295,3
359,8	1556,3
360,3	1775,1
360,8	1970,7
361,2	2317,9
361,7	2609,7
362,1	2920,3
362,6	3353,1
363	3752,9
363,5	4191,1
364	4659,3
364,4	5165,5
364,9	5642,5
365,3	6131,5
365,8	6550,3
366,3	6978,9
366,7	7305,9
367,2	7712,7
367,6	7947,7
368,1	8162,3
368,5	8277,1
369	8361,1
369,5	8323,3
369,9	8263,9
370,4	8102,9
370,8	7935,1
371,3	7645,9
371,7	7309,1
372,2	7004,1
372,7	6668,1
373,1	6213,1
373,6	5884,3
374	5429,3
374,5	5092,5
374,9	4670,7
375,4	4346,9
375,9	4058,3
376,3	3682,3
376,8	3346,3
377,2	3141,7
377,7	2810,5
378,2	2595,5
378,6	2343,9
379,1	2138,5
379,5	1999,3
380	1777,3
380,4	1606,9
380,9	1479,9
381,4	1365,3
381,8	1257,9
382,3	1124,3
382,7	1076,9
383,2	979,3
383,6	908,9
384,1	844,5
384,6	811,5
385	744,3
385,5	671,3
385,9	633,9
386,4	603,3
386,8	515,5
387,3	458,3
387,7	482,1
388,2	391,3
388,7	407,3
389,1	352,9
389,6	357,9
390	305,7
390,5	296,5
390,9	270,5
391,4	251,7
391,9	207,7
392,3	218,7
392,8	201,9
393,2	185,5
393,7	199,9
394,1	112,9
394,6	132,1
395,1	140,5
395,5	130,7
396	122,9
396,4	124,3
396,9	82,7
397,3	118,9
397,8	114,1
398,2	89,9
398,7	80,7
399,2	94,9
399,6	96,9
400,1	73,7
400,5	71,1
401	55,9
401,4	96,1
401,9	79,5
402,4	49,9
402,8	31,1
403,3	37,9
403,7	55,1
404,2	78,5
404,6	74,1
405,1	50,1
405,5	41,1
406	45,1
406,5	39,9
406,9	66,1
407,4	44,3
407,8	22,9
408,3	47,9
408,7	26,3
409,2	41,3
409,6	39,1
410,1	34,7
410,6	67,1
411	29,1
411,5	27,3
411,9	53,1
412,4	35,3
412,8	57,1
413,3	47,3
413,7	30,9
414,2	48,7
414,7	25,5
415,1	38,9
415,6	52,7
416	47,5
416,5	80,3
416,9	24,7
417,4	57,1
417,8	63,7
418,3	57,7
418,8	63,1
419,2	67,5
419,7	106,7
420,1	93,9
420,6	63,9
421	101,5
421,5	58,9
421,9	65,9
422,4	88,3
422,8	106,7
423,3	83,3
423,8	114,1
424,2	89,7
424,7	120,3
425,1	93,9
425,6	112,9
426	99,3
426,5	103,1
426,9	129,5
427,4	140,3
427,9	117,9
428,3	127,5
428,8	126,5
429,2	144,7
429,7	140,1
430,1	132,3
430,6	188,3
431	173,9
431,5	194,9
431,9	208,5
432,4	204,5
432,8	199,5
433,3	209,7
433,8	214,5
434,2	246,9
434,7	247,5
435,1	196,5
435,6	290,7
436	254,9
436,5	304,9
436,9	311,9
437,4	325,7
437,8	350,3
438,3	373,5
438,8	377,5
439,2	402,3
439,7	401,5
440,1	407,9
440,6	442,5
441	483,7
441,5	494,3
441,9	529,3
442,4	533,3
442,8	557,3
443,3	607,3
443,7	583,7
444,2	637,9
444,7	653,3
445,1	689,9
445,6	762,9
446	748,7
446,5	788,9
446,9	820,3
447,4	842,9
447,8	845,5
448,3	898,5
448,7	971,5
449,2	1006,1
449,6	1030,3
450,1	1072,3
450,6	1122,9
451	1162,5
451,5	1184,1
451,9	1256,5
452,4	1259,1
452,8	1330,3
453,3	1342,1
453,7	1428,1
454,2	1462,5
454,6	1516,9
455,1	1540,3
455,5	1610,3
456	1659,9
456,4	1746,7
456,9	1778,7
457,3	1805,5
457,8	1900,7
458,3	1947,5
458,7	2015,9
459,2	2078,1
459,6	2130,9
460,1	2176,1
460,5	2284,1
461	2318,5
461,4	2392,9
461,9	2450,1
462,3	2475,7
462,8	2558,9
463,2	2582,1
463,7	2708,3
464,1	2743,5
464,6	2791,9
465	2877,1
465,5	2915,9
466	2980,1
466,4	3073,7
466,9	3131,3
467,3	3212,9
467,8	3249,1
468,2	3309,9
468,7	3343,1
469,1	3445,5
469,6	3515,5
470	3531,9
470,5	3606,3
470,9	3675,9
471,4	3773,3
471,8	3793,5
472,3	3892,3
472,7	3890,9
473,2	3998,7
473,6	3997,1
474,1	4039,1
474,5	4124,3
475	4195,5
475,4	4230,3
475,9	4259,9
476,4	4327,3
476,8	4331,1
477,3	4473,1
477,7	4445,3
478,2	4505,5
478,6	4522,5
479,1	4552,7
479,5	4595,7
480	4692,9
480,4	4678,9
480,9	4693,3
481,3	4763,7
481,8	4750,5
482,2	4798,5
482,7	4831,1
483,1	4853,9
483,6	4880,3
484	4901,5
484,5	4953,5
484,9	4930,9
485,4	4940,9
485,8	4923,7
486,3	4946,3
486,7	4988,9
487,2	4954,5
487,6	5000,1
488,1	5010,9
488,5	4998,7
489	5059,9
489,4	5015,1
489,9	5063,7
490,4	5035,1
490,8	5015,7
491,3	5029,5
491,7	4998,3
492,2	5050,5
492,6	5014,7
493,1	4958,7
493,5	4969,1
494	4996,5
494,4	4958,1
494,9	4906,5
495,3	4911,7
495,8	4911,9
496,2	4918,3
496,7	4880,3
497,1	4874,5
497,6	4842,9
498	4785,1
498,5	4765,7
498,9	4730,7
499,4	4763,5
499,8	4721,3
500,3	4677,5
500,7	4660,7
501,2	4638,3
501,6	4615,3
502,1	4621,7
502,5	4594,1
503	4545,1
503,4	4519,3
503,9	4520,5
504,3	4446,3
504,8	4453,1
505,2	4408,3
505,7	4443,1
506,1	4368,7
506,6	4280,7
507	4264,9
507,5	4300,1
507,9	4228,5
508,4	4224,9
508,8	4183,3
509,3	4157,5
509,7	4124,5
510,2	4062,3
510,6	4021,5
511,1	4010,5
511,5	4007,3
512	3958,5
512,4	3925,7
512,9	3870,9
513,3	3820,3
513,8	3836,7
514,2	3786,7
514,7	3759,3
515,1	3751,5
515,6	3692,1
516	3635,9
516,5	3605,1
516,9	3587,5
517,4	3580,9
517,8	3548,7
518,3	3504,3
518,7	3435,7
519,2	3439,5
519,6	3365,1
520,1	3345,3
520,5	3348,7
521	3304,1
521,4	3325,3
521,9	3244,1
522,3	3214,7
522,8	3193,3
523,2	3152,9
523,7	3120,1
524,1	3129,7
524,6	3038,9
525	3050,1
525,5	2980,7
525,9	2965,5
526,4	2957,5
526,8	2928,9
527,3	2907,7
527,7	2855,3
528,2	2892,5
528,6	2803,5
529,1	2797,5
529,5	2793,1
530	2756,9
530,4	2691,9
530,9	2710,3
531,3	2674,3
531,8	2651,3
532,2	2618,5
532,6	2561,7
533,1	2562,7
533,5	2547,9
534	2515,3
534,4	2482,3
534,9	2468,1
535,3	2456,1
535,8	2430,7
536,2	2441,3
536,7	2377,7
537,1	2334,9
537,6	2378,3
538	2332,1
538,5	2312,9
538,9	2267,3
539,4	2248,5
539,8	2211,5
540,3	2199,5
540,7	2188,9
541,2	2172,5
541,6	2128,1
542,1	2151,1
542,5	2147,7
543	2107,5
543,4	2080,3
543,9	2066,9
544,3	2057,9
544,8	2053,1
545,2	2061,1
545,7	2025,7
546,1	1985,1
546,5	1939,7
547	1950,5
547,4	1937,1
547,9	1908,3
548,3	1912,3
548,8	1892,9
549,2	1884,9
549,7	1854,1
550,1	1872,1
550,6	1842,1
551	1792,1
551,5	1820,7
551,9	1792,7
552,4	1768,9
552,8	1756,5
553,3	1701,1
553,7	1736,3
554,2	1706,7
554,6	1726,7
555,1	1729,5
555,5	1712,3
555,9	1726,7
556,4	1639,5
556,8	1667,3
557,3	1664,7
557,7	1619,7
558,2	1592,5
558,6	1598,3
559,1	1618,7
559,5	1579,7
560	1567,5
560,4	1546,3
560,9	1559,3
561,3	1561,7
561,8	1523,7
562,2	1516,9
562,7	1512,7
563,1	1510,3
563,6	1445,7
564	1455,5
564,4	1463,5
564,9	1442,7
565,3	1482,5
565,8	1423,1
566,2	1450,5
566,7	1415,7
567,1	1401,9
567,6	1416,3
568	1378,5
568,5	1370,7
568,9	1381,7
569,4	1354,1
569,8	1379,3
570,3	1355,3
570,7	1346,9
571,1	1329,3
571,6	1294,9
572	1328,1
572,5	1286,5
572,9	1292,7
573,4	1298,5
573,8	1255,5
574,3	1271,1
574,7	1249,7
575,2	1273,9
575,6	1228,3
576,1	1197,7
576,5	1196,3
576,9	1222,5
577,4	1214,7
577,8	1163,9
578,3	1177,9
578,7	1196,1
579,2	1175,5
579,6	1152,1
580,1	1153,9
580,5	1176,3
581	1158,1
581,4	1139,3
581,9	1125,9
582,3	1108,9
582,7	1115,9
583,2	1100,1
583,6	1161,9
584,1	1074,5
584,5	1091,7
585	1089,9
585,4	1092,5
585,9	1067,7
586,3	1076,1
586,8	1045,7
587,2	1045,9
587,6	1049,7
588,1	1048,5
588,5	1028,7
589	1002,1
589,4	995,9
589,9	1003,5
590,3	982,7
590,8	991,9
591,2	1030,3
591,7	961,1
592,1	1003,5
592,5	976,9
593	978,3
593,4	997,3
593,9	951,1
594,3	936,3
594,8	958,7
595,2	915,7
595,7	927,1
596,1	967,5
596,6	924,1
597	933,5
597,4	942,7
597,9	905,1
598,3	903,1
598,8	869,1
599,2	865,5
599,7	892,7
600,1	876,1
600,6	866,3
601	894,3
601,4	887,5
601,9	855,7
602,3	876,9
602,8	844,9
603,2	840,5
603,7	859,3
604,1	852,9
604,6	848,7
605	827,1
605,4	821,5
605,9	825,7
606,3	855,9
606,8	812,9
607,2	829,9
607,7	801,1
608,1	834,5
608,6	781,3
609	796,1
609,4	804,3
609,9	775,9
610,3	767,5
610,8	794,9
611,2	754,7
611,7	747,3
612,1	761,9
612,6	776,5
613	738,3
613,4	737,5
613,9	754,9
614,3	729,3
614,8	727,7
615,2	704,7
615,7	717,3
616,1	723,5
616,6	698,9
617	722,9
617,4	734,9
617,9	699,9
618,3	694,3
618,8	674,3
619,2	700,7
619,7	678,9
620,1	692,5
620,5	696,7
621	669,5
621,4	643,7
621,9	682,7
622,3	641,1
622,8	636,1
623,2	666,9
623,6	638,3
624,1	639,9
624,5	642,5
625	643,3
625,4	640,5
625,9	666,7
626,3	577,7
626,8	611,9
627,2	581,1
627,6	590,3
628,1	586,1
628,5	613,3
629	597,5
629,4	567,7
629,9	623,1
630,3	583,1
630,7	571,3
631,2	562,7
631,6	570,1
632,1	565,5
632,5	569,9
633	570,5
633,4	570,9
633,8	566,9
634,3	530,7
634,7	537,7
635,2	577,9
635,6	537,5
636,1	530,7
636,5	526,3
636,9	548,7
637,4	518,5
637,8	524,9
638,3	495,9
638,7	502,9
639,2	508,9
639,6	490,5
640	511,3
640,5	508,3
640,9	526,9
641,4	482,5
641,8	506,9
642,2	493,7
642,7	508,1
643,1	512,5
643,6	470,5
644	488,9
644,5	455,3
644,9	478,9
645,3	496,1
645,8	481,7
646,2	467,5
646,7	481,3
647,1	431,1
647,6	438,5
648	481,9
648,4	412,9
648,9	451,1
649,3	467,7
649,8	452,7
650,2	458,3
650,6	428,1
651,1	436,9
651,5	430,9
652	405,7
652,4	422,9
652,9	450,9
653,3	412,1
653,7	439,3
654,2	411,3
654,6	418,3
655,1	418,5
655,5	420,9
655,9	378,9
656,4	412,5
656,8	389,3
657,3	398,3
657,7	406,3
658,2	400,7
658,6	364,5
659	354,7
659,5	363,3
659,9	360,3
660,4	362,9
660,8	396,3
661,2	387,5
661,7	360,9
662,1	397,9
662,6	358,9
663	352,9
663,4	349,7
663,9	384,5
664,3	328,9
664,8	354,9
665,2	347,9
665,6	361,1
666,1	372,5
666,5	312,7
667	381,5
667,4	337,1
667,9	350,1
668,3	337,1
668,7	347,7
669,2	334,9
669,6	318,9
670,1	317,7
670,5	346,7
670,9	312,7
671,4	336,3
671,8	313,5
672,3	321,9
672,7	310,5
673,1	327,9
673,6	320,7
674	312,7
674,5	278,7
674,9	329,9
675,3	301,5
675,8	297,9
676,2	308,7
676,7	301,7
677,1	284,7
677,5	295,3
678	280,9
678,4	321,5
678,9	281,5
679,3	275,5
679,7	281,5
680,2	291,1
680,6	272,7
681,1	275,5
681,5	305,1
681,9	255,3
682,4	297,9
682,8	271,1
683,3	256,5
683,7	271,5
684,1	274,9
684,6	288,7
685	270,9
685,5	255,1
685,9	247,9
686,3	269,7
686,8	248,7
687,2	256,3
687,7	233,3
688,1	236,5
688,5	258,7
689	245,7
689,4	243,7
689,9	254,1
690,3	257,7
690,7	266,3
691,2	231,9
691,6	219,9
692	220,9
692,5	240,3
692,9	267,9
693,4	221,1
693,8	245,9
694,2	223,5
694,7	252,5
695,1	244,7
695,6	211,9
696	219,7
696,4	213,7
696,9	228,1
697,3	233,1
697,8	257,5
698,2	220,5
698,6	228,5
699,1	209,1
699,5	192,5
699,9	213,7
700,4	220,9
700,8	216,1
701,3	197,5
701,7	200,7
702,1	206,7
702,6	170,7
703	198,7
703,5	208,7
703,9	213,1
704,3	205,9
704,8	185,7
705,2	221,1
705,6	219,7
706,1	209,9
706,5	200,5
707	194,5
707,4	186,7
707,8	192,5
708,3	183,1
708,7	170,5
709,2	166,5
709,6	216,3
710	173,1
710,5	160,7
710,9	199,1
711,3	173,3
711,8	163,3
712,2	175,3
712,7	159,5
713,1	177,3
713,5	194,5
714	178,1
714,4	159,3
714,8	170,9
715,3	155,3
715,7	138,1
716,2	153,5
716,6	171,1
717	171,1
717,5	187,3
717,9	167,5
718,3	171,1
718,8	170,5
719,2	206,1
719,7	153,3
720,1	167,9
720,5	152,5
721	152,3
721,4	159,9
721,8	138,1
722,3	136,3
722,7	141,9
723,2	159,1
723,6	181,5
724	125,3
724,5	146,9
724,9	140,5
725,3	155,5
725,8	148,5
726,2	181,5
726,7	137,5
727,1	160,1
727,5	158,1
728	127,7
728,4	133,5
728,8	135,5
729,3	107,3
729,7	150,3
730,1	153,9
730,6	135,9
731	123,5
731,5	149,9
731,9	118,1
732,3	140,1
732,8	123,3
733,2	112,7
733,6	118,3
734,1	128,5
734,5	146,3
734,9	129,5
735,4	134,5
735,8	129,1
736,3	144,1
736,7	133,1
737,1	113,7
737,6	128,1
738	148,5
738,4	120,5
738,9	126,3
739,3	89,9
739,7	101,9
740,2	110,7
740,6	117,7
741,1	140,3
741,5	124,1
741,9	146,3
742,4	137,5
742,8	106,5
743,2	126,5
743,7	104,3
744,1	99,7
744,5	104,3
745	76,1
745,4	149,5
745,8	127,1
746,3	98,7
746,7	120,9
747,2	118,3
747,6	94,9
748	131,9
748,5	117,3
748,9	112,3
749,3	107,7
749,8	123,3
750,2	118,9
750,6	102,7
751,1	111,3
751,5	106,1
751,9	97,5
752,4	101,9
752,8	106,3
753,3	114,1
753,7	80,7
754,1	117,9
754,6	94,9
755	121,9
755,4	94,1
755,9	126,7
756,3	101,1
756,7	79,9
757,2	120,5
757,6	78,1
758	51,5
758,5	83,7
758,9	89,9
759,3	85,9
759,8	118,9
760,2	100,9
760,6	83,9
761,1	76,3
761,5	81,9
761,9	128,9
762,4	91,5
762,8	64,9
763,3	95,1
763,7	108,3
764,1	115,5
764,6	67,3
765	78,3
765,4	97,1
765,9	89,3
766,3	107,9
766,7	83,1
767,2	73,7
767,6	101,3
768	79,7
768,5	92,5
768,9	69,1
769,3	75,3
769,8	60,3
770,2	95,5
770,6	89,9
771,1	62,7
771,5	114,7
771,9	56,1
772,4	92,1
772,8	93,1
773,2	99,5
773,7	56,1
774,1	50,7
774,5	94,1
775	48,1
775,4	84,9
775,8	64,9
776,3	89,5
776,7	66,3
777,1	80,5
777,6	95,5
778	99,3
778,4	80,1
778,9	101,1
779,3	40,7
779,7	69,1
780,2	68,7
780,6	69,7
781	72,7
781,5	81,9
781,9	69,3
782,3	89,5
782,8	104,3
783,2	72,5
783,6	71,1
784,1	104,9
784,5	36,9
784,9	77,7
785,4	64,5
785,8	83,9
786,2	93,1
786,7	37,5
787,1	81,7
787,5	58,9
788	80,1
788,4	43,3
788,8	84,3
789,3	53,3
789,7	87,9
790,1	67,1
790,6	64,9
791	58,7
791,4	48,9
791,9	100,9
792,3	85,9
792,7	80,1
793,2	73,3
793,6	52,1
794	46,7
794,5	43,3
794,9	60,7
795,3	69,7
795,8	50,9
796,2	74,9
796,6	30,1
797,1	62,5
797,5	63,1
797,9	46,7
798,4	69,3
798,8	62,5
799,2	62,1
799,7	31,3
800,1	88,9
800,5	100,3
801	55,9
801,4	56,1
801,8	75,5
802,2	81,3
802,7	44,1
803,1	82,5
803,5	39,3
804	67,1
804,4	65,3
804,8	37,9
805,3	35,7
805,7	41,7
806,1	28,9
806,6	57,9
807	53,7
807,4	51,5
807,9	66,7
808,3	47,5
808,7	61,5
809,2	57,7
809,6	51,7
810	37,9
810,4	50,7
810,9	55,7
811,3	71,9
811,7	49,7
812,2	38,5
812,6	52,9
813	44,7
813,5	74,3
813,9	39,9
814,3	40,7
814,8	59,3
815,2	58,3
815,6	28,9
816,1	27,9
816,5	48,9
816,9	46,5
817,3	44,5
817,8	26,7
818,2	14,1
818,6	66,3
819,1	29,9
819,5	38,3
819,9	52,5
820,4	27,1
820,8	42,7
821,2	24,3
821,7	23,5
822,1	30,3
822,5	29,5
822,9	49,1
823,4	65,5
823,8	67,5
824,2	53,7
824,7	64,3
825,1	43,9
825,5	22,5
826	26,9
826,4	48,1
826,8	42,5
827,3	26,3
827,7	12,9
828,1	17,5
828,5	38,5
829	34,7
829,4	45,5
829,8	15,5
830,3	25,9
830,7	9,5
831,1	54,3
831,6	67,3
832	53,7
832,4	38,7
832,8	32,7
833,3	-8,3
833,7	28,9
834,1	27,9
834,6	37,3
835	38,5
835,4	3,5
835,8	54,3
836,3	44,9
836,7	18,7
837,1	48,1
837,6	23,7
838	3,7
838,4	34,9
838,9	22,5
839,3	36,5
839,7	35,7
840,1	11,3
840,6	52,9
841	20,5
841,4	33,9
841,9	-6,3
842,3	52,5
842,7	34,1
843,1	11,3
843,6	33,3
844	33,7
844,4	18,7
844,9	39,5
845,3	21,5
845,7	6,9
846,2	28,5
846,6	51,3
847	18,3
847,4	28,5
847,9	18,5
848,3	15,1
848,7	30,5
849,2	14,9
849,6	32,7
850	12,7
850,4	17,7
850,9	27,3
851,3	28,5
851,7	13,7
852,2	44,3
852,6	21,3
853	0,5
853,4	53,1
853,9	26,7
854,3	20,3
854,7	10,3
855,2	8,9
855,6	-15,3
856	20,7
856,4	8,1
856,9	32,7
857,3	12,3
857,7	20,9
858,2	39,5
858,6	24,1
859	14,7
859,4	11,7
859,9	-3,7
860,3	20,9
860,7	26,3
861,1	17,9
861,6	0,9
862	31,5
862,4	37,9
862,9	-5,9
863,3	12,5
863,7	51,5
864,1	12,1
864,6	40,9
865	33,9
865,4	1,1
865,9	34,5
866,3	15,3
866,7	23,9
867,1	18,5
867,6	15,9
868	10,3
868,4	20,9
868,8	-19,9
869,3	28,3
869,7	4,9
870,1	14,7
870,6	19,3
871	27,5
871,4	35,9
871,8	-20,3
872,3	183,5
872,7	-13,5
873,1	34,1
873,5	22,7
874	43,1
874,4	33,7
874,8	22,9
875,3	-3,9
875,7	3,7
876,1	19,5
876,5	9,3
877	5,7
877,4	34,5
877,8	20,7
878,2	7,5
878,7	41,5
879,1	20,1
879,5	56,9
879,9	23,3
880,4	14,1
880,8	24,1
881,2	18,3
881,7	14,5
882,1	-0,7
882,5	15,1
882,9	11,3
883,4	15,9
883,8	16,7
884,2	-0,3
884,6	8,1
885,1	12,7
885,5	1,9
885,9	17,9
886,3	-1,5
886,8	26,9
887,2	-26,1
887,6	15,1
888	-6,9
888,5	42,1
888,9	36,1
889,3	-10,1
889,8	2,5
890,2	8,9
890,6	14,3
891	25,3
891,5	-12,7
891,9	-4,7
892,3	14,5
892,7	13,9
893,2	-7,3
893,6	16,5
894	-11,3
894,4	-8,3
894,9	23,5
895,3	-5,1
895,7	58,5
896,1	42,3
896,6	10,5
897	6,7
897,4	-28,3
897,8	-15,1
898,3	-7,7
898,7	28,3
899,1	-14,3
899,5	4,5
900	8,3
900,4	6,9
900,8	15,3
901,2	0,7
901,7	-6,5
902,1	-30,9
902,5	19,7
902,9	9,3
903,4	11,5
903,8	8,3
904,2	16,7
904,6	-4,1
905,1	4,1
905,5	-10,1
905,9	-30,7
906,3	2,5
906,8	-7,9
907,2	-21,7
907,6	-3,1
908	-6,3
908,5	-3,3
908,9	11,7
909,3	-9,1
909,7	7,3
910,2	20,5
910,6	2,9
911	4,7
911,4	-6,3
911,9	15,5
912,3	9,7
912,7	40,9
913,1	10,7
913,6	31,7
914	1,5
914,4	8,9
914,8	-8,3
915,3	-4,3
915,7	-3,9
916,1	46,3
916,5	0,1
916,9	22,5
917,4	-11,5
917,8	33,5
918,2	5,1
918,6	3,3
919,1	6,7
919,5	-10,7
919,9	4,1
920,3	-11,3
920,8	6,3
921,2	17,5
921,6	-15,9
922	25,1
922,5	-24,5
922,9	5,3
923,3	20,9
923,7	35,7
924,2	-4,5
924,6	-6,7
925	17,7
925,4	19,1
925,8	-14,3
926,3	-26,7
926,7	11,7
927,1	-10,7
927,5	7,7
928	5,3
928,4	11,7
928,8	2,3
929,2	-1,7
929,7	37,9
930,1	8,3
930,5	-10,5
930,9	9,5
931,3	-12,9
931,8	-7,5
932,2	4,9
932,6	-15,3
933	-8,7
933,5	6,5
933,9	-1,9
934,3	-3,3
934,7	33,5
935,2	-3,5
935,6	1,9
936	-16,3
936,4	-10,3
936,8	32,7
937,3	23,9
937,7	-5,1
938,1	15,5
938,5	1,7
939	18,5
939,4	-4,7
939,8	26,7
940,2	-14,9
940,6	29,5
941,1	-12,9
941,5	19,1
941,9	-9,1
942,3	0,3
942,8	9,7
943,2	25,9
943,6	-17,5
944	-35,3
944,4	13,7
944,9	7,3
945,3	18,3
945,7	-4,7
946,1	-21,1
946,6	-0,5
947	-20,1
947,4	13,7
947,8	-8,1
948,2	8,5
948,7	-11,9
949,1	6,5
949,5	6,3
949,9	13,9
950,3	-8,1
950,8	-8,7
951,2	5,3
951,6	7,9
952	21,9
952,5	-1,7
952,9	-1,7
953,3	1,7
953,7	17,3
954,1	3,5
954,6	28,5
955	8,5
955,4	-17,7
955,8	20,9
956,2	15,5
956,7	-8,3
957,1	39,5
957,5	-23,1
957,9	22,3
958,3	8,9
958,8	-3,1
959,2	27,1
959,6	27,1
960	-10,5
960,5	8,3
960,9	-11,3
961,3	4,7
961,7	-7,3
962,1	0,3
962,6	5,7
963	10,1
963,4	10,3
963,8	10,1
964,2	13,1
964,7	19,7
965,1	22,7
965,5	-7,7
965,9	27,7
966,3	-20,5
966,8	2,3
967,2	-3,5
967,6	16,1
968	-3,3
968,4	2,5
968,9	16,1
969,3	-4,1
969,7	-10,3
970,1	-6,1
970,5	1,5
971	10,3
971,4	-16,1
971,8	0,3
972,2	0,3
972,6	-20,3
973,1	-11,3
973,5	2,7
973,9	-4,1
974,3	18,1
974,7	23,3
975,2	29,5
975,6	6,7
976	12,7
976,4	16,7
976,8	13,1
977,3	30,5
977,7	-7,1
978,1	-2,9
978,5	-11,9
978,9	4,1
979,4	-3,1
979,8	-8,9
980,2	20,3
980,6	17,3
981	-6,9
981,5	5,7
981,9	-0,1
982,3	21,5
982,7	2,3
983,1	20,7
983,6	1,7
984	-8,9
984,4	-12,7
984,8	-17,3
985,2	3,5
985,6	19,3
986,1	-35,9
986,5	-48,9
986,9	54,5
987,3	-4,5
987,7	-20,1
988,2	4,5
988,6	16,3
989	9,3
989,4	3,7
989,8	-7,5
990,3	0,7
990,7	10,1
991,1	47,1
991,5	23,3
991,9	12,5
992,3	-13,9
992,8	-16,1
993,2	-8,3
993,6	14,1
994	18,7
994,4	-9,9
994,9	-1,9
995,3	-13,1
995,7	12,1
996,1	19,7
996,5	2,3
996,9	-4,5
997,4	35,5
997,8	34,7
998,2	-2,9
998,6	-2,1
999	-6,1
999,5	17,9
999,9	16,9
1000,3	-18,1
1000,7	-12,3
1001,1	-2,9
1001,5	-23,3
1002	4,7
1002,4	-8,9
1002,8	-4,7
1003,2	-22,9
1003,6	-1,3
1004	7,5
1004,5	22,1
1004,9	30,7
1005,3	10,3
1005,7	-23,1
1006,1	-39,1
1006,6	25,1
1007	-4,7
1007,4	14,5
1007,8	-18,9
1008,2	27,5
1008,6	-3,1
1009,1	2,9
1009,5	17,3
1009,9	-11,1
1010,3	-11,9
1010,7	9,9
1011,1	3,1
1011,6	-9,3
1012	-32,5
1012,4	1,9
1012,8	-9,5
1013,2	-0,7
1013,6	-8,1
1014,1	30,7
1014,5	0,1
1014,9	-4,7
1015,3	-13,3
1015,7	21,5
1016,1	-10,9
1016,6	-13,1
1017	-4,3
1017,4	18,9
1017,8	-3,1
1018,2	-25,9
1018,6	-2,1
1019,1	26,1
1019,5	28,7
1019,9	17,5
1020,3	8,1
1020,7	-1,7
1021,1	-3,7
1021,6	16,3
1022	4,9
1022,4	10,5
1022,8	-6,5
1023,2	25,9
1023,6	-12,1
1024,1	-30,1
1024,5	-13,7
1024,9	8,3
1025,3	6,7
1025,7	-18,7
1026,1	-19,1
1026,6	15,1
1027	4,7
1027,4	13,1
1027,8	-35,7
1028,2	-10,9
1028,6	6,3
1029	2,1
1029,5	1,7
1029,9	11,3
1030,3	-17,9
1030,7	23,9
1031,1	-16,1
1031,5	20,7
1032	23,3
1032,4	8,1
1032,8	-37,9
1033,2	42,7
1033,6	6,7
1034	-17,5
1034,4	-0,9
1034,9	21,3
1035,3	3,7
1035,7	-11,7
1036,1	-16,5
1036,5	16,7
1036,9	8,7
1037,4	-5,9
1037,8	1,7
1038,2	-9,5
1038,6	17,9
1039	3,1
1039,4	16,3
1039,8	-9,7
1040,3	17,5
1040,7	15,3
1041,1	35,3
1041,5	5,1
1041,9	7,1
1042,3	0,9
1042,7	7,1
1043,2	0,7
1043,6	-7,9
1044	-11,7
1044,4	0,9
1044,8	12,7
1045,2	-7,5
1045,6	-8,1
1046,1	27,9
1046,5	28,7
1046,9	15,3
1047,3	-8,3
1047,7	1,3
1048,1	4,1
1048,5	2,1
1049	-9,7
1049,4	-25,7
1049,8	-26,7
1050,2	3,5
1050,6	32,1
1051	-35,1
1051,4	-12,3
1051,9	8,1
1052,3	18,3
1052,7	-33,7
1053,1	-2,5
1053,5	18,7
1053,9	-14,9
1054,3	-24,5
1054,8	23,3
1055,2	-10,9
1055,6	-13,9
1056	26,1
1056,4	-26,3
1056,8	9,3
1057,2	-4,1
1057,6	-3,3
1058,1	-21,3
1058,5	-4,9
1058,9	6,7
1059,3	19,3
1059,7	-10,5
1060,1	3,7
1060,5	-18,7
1061	-1,7
1061,4	26,3
1061,8	-0,1
1062,2	-0,9
1062,6	-17,1
1063	-26,1
1063,4	33,5
1063,8	-6,1
1064,3	26,1
1064,7	-15,9
1065,1	27,5
1065,5	24,7
1065,9	47,5
1066,3	6,1
1066,7	8,5
1067,1	17,5
1067,6	-17,3
1068	6,7
1068,4	15,3
1068,8	33,7
1069,2	16,7
1069,6	-7,1
1070	7,9
1070,4	-14,7
1070,9	-8,3
1071,3	1,1
1071,7	-5,7
1072,1	14,5
1072,5	-25,7
1072,9	12,9
1073,3	24,3
1073,7	19,3
1074,2	-10,3
1074,6	-11,1
1075	-0,3
1075,4	14,1
1075,8	2,1
1076,2	-13,3
1076,6	2,1
1077	-0,9
1077,5	-6,7
1077,9	-17,9
1078,3	-20,9
1078,7	6,7
1079,1	13,1
1079,5	27,1
1079,9	22,7
1080,3	26,7
1080,7	20,9
1081,2	11,3
1081,6	42,9
1082	-0,7
1082,4	18,1
1082,8	-2,9
1083,2	-13,1
1083,6	11,7
1084	-8,9
1084,5	-12,7
1084,9	-9,7
1085,3	31,1
1085,7	-4,5
1086,1	-7,3
1086,5	-3,7
1086,9	-5,5
1087,3	-27,3
1087,7	-2,1
1088,2	-6,9
1088,6	-4,3
1089	-18,5
1089,4	9,9
1089,8	-16,1
1090,2	-15,7
1090,6	1,1
1091	-7,3
1091,4	-11,9
1091,9	-18,3
1092,3	-5,3
1092,7	13,5
1093,1	20,1
1093,5	-17,3
1093,9	-6,9
1094,3	-0,5
1094,7	3,7
1095,1	-2,5
1095,5	2,5
1096	0,1
1096,4	60,5
1096,8	-3,3
1097,2	-7,9
1097,6	22,1
1098	-2,3
1098,4	5,9
1098,8	-4,7
1099,2	-0,3
1099,6	-4,7
1100,1	-8,7
1100,5	-9,9
1100,9	1,3
1101,3	19,5
1101,7	16,9
1102,1	-11,3
1102,5	-3,9
1102,9	26,5
1103,3	3,5
1103,7	7,1
1104,2	16,9
1104,6	0,9
1105	-20,5
1105,4	-12,7
1105,8	-10,1
1106,2	-1,5
1106,6	14,3
1107	0,9
1107,4	2,7
1107,8	-0,1
1108,3	-1,1
