Data from Subt2_00029.txt Node
Date: Wed Aug 02 19:32:28 MSK 2023
User: vat
Spectrometer: MAYP114033
Trigger mode: 0
Integration Time (sec): 7,000000E-1
Scans to average: 5
Electric dark correction enabled: true
Nonlinearity correction enabled: false
Boxcar width: 0
XAxis mode: Wavelengths
Number of Pixels in Spectrum: 2068
>>>>>Begin Spectral Data<<<<<
199,4	-0,1
199,9	-0,1
200,4	-2,5
200,8	0,1
201,3	-21,5
201,8	-3,3
202,2	21,7
202,7	0,9
203,2	30,9
203,6	23,7
204,1	2,1
204,6	21,1
205	-15,3
205,5	3,7
206	-16,1
206,4	-4,9
206,9	-12,7
207,4	12,7
207,8	17,3
208,3	-24,3
208,8	9,9
209,2	28,7
209,7	-37,9
210,2	7,1
210,6	-12,5
211,1	24,9
211,5	-16,7
212	-8,5
212,5	-0,5
212,9	0,9
213,4	-22,5
213,9	-17,9
214,3	23,9
214,8	-10,3
215,3	-13,9
215,7	0,5
216,2	5,5
216,7	-18,1
217,1	-6,9
217,6	11,1
218,1	-7,3
218,5	1,1
219	2,9
219,5	-10,3
219,9	17,1
220,4	12,5
220,9	14,7
221,3	-7,5
221,8	14,1
222,3	-6,7
222,7	16,5
223,2	33,3
223,6	27,9
224,1	10,7
224,6	-9,3
225	-20,5
225,5	18,5
226	9,3
226,4	18,1
226,9	-29,7
227,4	20,3
227,8	-5,7
228,3	2,1
228,8	-0,9
229,2	12,1
229,7	31,7
230,2	-48,9
230,6	3,7
231,1	-4,1
231,5	17,3
232	56,5
232,5	26,5
232,9	-10,3
233,4	36,5
233,9	-5,9
234,3	16,1
234,8	-22,7
235,3	20,9
235,7	2,9
236,2	2,9
236,7	-3,7
237,1	-9,7
237,6	-8,3
238,1	35,1
238,5	5,5
239	7,9
239,4	13,7
239,9	11,3
240,4	20,5
240,8	8,9
241,3	-19,5
241,8	5,7
242,2	-13,3
242,7	6,7
243,2	-5,1
243,6	12,1
244,1	17,9
244,6	-7,1
245	14,1
245,5	-8,3
245,9	22,3
246,4	-16,1
246,9	13,9
247,3	2,1
247,8	31,1
248,3	-0,1
248,7	29,3
249,2	6,1
249,7	-12,9
250,1	-27,1
250,6	8,5
251	-26,5
251,5	16,5
252	-10,1
252,4	-6,1
252,9	-21,9
253,4	6,3
253,8	9,9
254,3	-13,5
254,8	-20,5
255,2	4,5
255,7	-5,3
256,1	-20,1
256,6	-8,3
257,1	30,3
257,5	16,3
258	27,1
258,5	11,9
258,9	-1,5
259,4	-5,7
259,9	49,1
260,3	-14,3
260,8	10,1
261,2	-4,5
261,7	23,3
262,2	24,9
262,6	12,7
263,1	3,9
263,6	28,7
264	3,5
264,5	15,1
264,9	10,5
265,4	2,3
265,9	29,5
266,3	-12,9
266,8	20,9
267,3	-32,9
267,7	-20,3
268,2	1,9
268,7	5,9
269,1	5,9
269,6	32,3
270	-1,9
270,5	17,1
271	24,3
271,4	7,7
271,9	-18,1
272,4	-12,5
272,8	-11,9
273,3	13,5
273,7	4,5
274,2	32,3
274,7	-5,7
275,1	-1,3
275,6	-2,3
276,1	-4,1
276,5	16,7
277	-27,7
277,4	4,1
277,9	6,7
278,4	16,7
278,8	-19,3
279,3	12,1
279,8	15,1
280,2	15,1
280,7	-2,7
281,1	4,5
281,6	-35,1
282,1	18,7
282,5	16,1
283	-10,9
283,4	-11,1
283,9	10,1
284,4	-9,1
284,8	-2,9
285,3	-15,3
285,8	18,9
286,2	2,9
286,7	25,3
287,1	4,5
287,6	26,3
288,1	-9,1
288,5	7,1
289	34,3
289,5	-7,7
289,9	-5,3
290,4	-3,1
290,8	14,7
291,3	0,5
291,8	17,5
292,2	12,9
292,7	0,7
293,1	7,1
293,6	22,9
294,1	29,3
294,5	22,7
295	2,5
295,5	0,7
295,9	2,5
296,4	-25,7
296,8	-2,7
297,3	-5,3
297,8	-13,9
298,2	-27,3
298,7	1,3
299,1	32,9
299,6	12,9
300,1	4,1
300,5	8,3
301	18,7
301,5	-19,5
301,9	-42,9
302,4	-27,7
302,8	-10,1
303,3	-36,5
303,8	-13,3
304,2	5,7
304,7	22,1
305,1	-6,1
305,6	-0,9
306,1	4,7
306,5	0,1
307	13,1
307,4	3,5
307,9	12,3
308,4	-1,3
308,8	-7,9
309,3	-21,5
309,8	-0,9
310,2	7,3
310,7	6,5
311,1	-20,3
311,6	8,7
312,1	18,5
312,5	-4,1
313	36,9
313,4	15,5
313,9	6,1
314,4	-10,1
314,8	-10,3
315,3	13,1
315,7	-4,1
316,2	16,7
316,7	4,1
317,1	8,5
317,6	-9,1
318	-8,7
318,5	21,1
319	-16,5
319,4	-13,5
319,9	-11,9
320,3	-14,3
320,8	-2,7
321,3	-2,1
321,7	22,9
322,2	-10,7
322,6	19,5
323,1	16,5
323,6	-0,7
324	3,7
324,5	-20,5
324,9	-11,7
325,4	0,9
325,9	-12,5
326,3	2,5
326,8	-2,7
327,2	9,9
327,7	48,3
328,2	4,3
328,6	7,5
329,1	11,9
329,5	9,7
330	23,1
330,5	-10,1
330,9	-2,3
331,4	-3,9
331,8	-12,5
332,3	-10,5
332,8	-6,5
333,2	49,3
333,7	11,7
334,1	26,7
334,6	-9,7
335,1	7,9
335,5	8,7
336	17,9
336,4	7,3
336,9	-24,9
337,4	14,1
337,8	6,9
338,3	7,3
338,7	0,5
339,2	-15,7
339,7	12,9
340,1	-6,5
340,6	6,3
341	7,5
341,5	30,1
342	12,5
342,4	38,1
342,9	19,5
343,3	5,5
343,8	-7,1
344,2	-6,5
344,7	12,7
345,2	28,3
345,6	-12,3
346,1	16,7
346,5	22,3
347	-10,9
347,5	39,5
347,9	17,7
348,4	35,5
348,8	1,7
349,3	-14,9
349,8	-7,5
350,2	0,9
350,7	1,9
351,1	-12,3
351,6	5,1
352	15,3
352,5	6,7
353	18,5
353,4	1,1
353,9	37,1
354,3	10,3
354,8	12,7
355,3	20,5
355,7	6,9
356,2	25,5
356,6	58,9
357,1	55,3
357,5	43,5
358	60,1
358,5	81,7
358,9	103,5
359,4	88,7
359,8	120,7
360,3	136,9
360,8	134,5
361,2	215,7
361,7	190,5
362,1	232,1
362,6	254,9
363	276,5
363,5	300,3
364	307,7
364,4	401,1
364,9	421,9
365,3	464,5
365,8	510,3
366,3	509,3
366,7	532,5
367,2	576,1
367,6	626,7
368,1	626,7
368,5	662,3
369	655,3
369,5	668,3
369,9	641,1
370,4	641,3
370,8	649,5
371,3	630,7
371,7	601,3
372,2	585,5
372,7	542,9
373,1	503,9
373,6	473,7
374	500,3
374,5	398,3
374,9	407,5
375,4	357,5
375,9	361,7
376,3	290,9
376,8	282,9
377,2	258,9
377,7	276,3
378,2	227,7
378,6	181,1
379,1	176,5
379,5	185,7
380	164,1
380,4	162,7
380,9	127,3
381,4	121,3
381,8	111,3
382,3	129,5
382,7	95,3
383,2	113,7
383,6	82,5
384,1	80,5
384,6	64,5
385	60,3
385,5	70,1
385,9	60,3
386,4	62,3
386,8	61,3
387,3	45,1
387,7	53,9
388,2	37,5
388,7	46,5
389,1	29,9
389,6	57,7
390	42,5
390,5	38,7
390,9	40,9
391,4	4,3
391,9	32,9
392,3	51,3
392,8	7,1
393,2	33,7
393,7	35,5
394,1	9,9
394,6	26,3
395,1	3,3
395,5	-4,7
396	-13,7
396,4	32,9
396,9	14,3
397,3	6,1
397,8	17,3
398,2	-0,3
398,7	13,9
399,2	26,1
399,6	9,1
400,1	3,5
400,5	-8,3
401	8,9
401,4	45,3
401,9	-5,5
402,4	13,7
402,8	19,1
403,3	11,1
403,7	46,5
404,2	3,1
404,6	16,3
405,1	16,3
405,5	3,5
406	33,5
406,5	14,9
406,9	4,1
407,4	6,3
407,8	9,3
408,3	22,1
408,7	19,3
409,2	20,3
409,6	-10,1
410,1	37,3
410,6	40,7
411	23,1
411,5	35,9
411,9	21,1
412,4	41,3
412,8	63,5
413,3	21,7
413,7	62,5
414,2	26,5
414,7	77,3
415,1	54,7
415,6	68,9
416	60,1
416,5	64,3
416,9	107,9
417,4	66,7
417,8	94,3
418,3	59,9
418,8	95,5
419,2	62,3
419,7	108,7
420,1	124,7
420,6	117,9
421	104,3
421,5	149,3
421,9	168,3
422,4	123,9
422,8	122,1
423,3	125,5
423,8	143,1
424,2	158,5
424,7	164,7
425,1	175,5
425,6	192,7
426	191,9
426,5	195,3
426,9	194,7
427,4	225,7
427,9	252,7
428,3	245,5
428,8	266,1
429,2	257,1
429,7	297,7
430,1	268,1
430,6	312,3
431	300,1
431,5	323,3
431,9	368,1
432,4	338,1
432,8	414,1
433,3	405,9
433,8	380,1
434,2	441,9
434,7	471,5
435,1	481,9
435,6	505,3
436	521,9
436,5	532,7
436,9	585,3
437,4	591,3
437,8	622,5
438,3	643,1
438,8	699,5
439,2	734,1
439,7	758,3
440,1	779,9
440,6	834,3
441	855,5
441,5	893,1
441,9	943,7
442,4	968,3
442,8	1005,7
443,3	1053,3
443,7	1130,3
444,2	1145,7
444,7	1216,7
445,1	1252,9
445,6	1276,7
446	1357,9
446,5	1369,9
446,9	1459,9
447,4	1528,1
447,8	1555,5
448,3	1648,9
448,7	1694,7
449,2	1736,1
449,6	1788,3
450,1	1863,5
450,6	1937,9
451	2008,9
451,5	2093,3
451,9	2117,5
452,4	2175,1
452,8	2278,7
453,3	2291,7
453,7	2407,9
454,2	2480,1
454,6	2538,7
455,1	2625,3
455,5	2694,9
456	2782,7
456,4	2848,9
456,9	2871,3
457,3	2945,5
457,8	3049,9
458,3	3136,9
458,7	3260,3
459,2	3307,3
459,6	3393,5
460,1	3422,7
460,5	3534,1
461	3579,3
461,4	3703,5
461,9	3770,3
462,3	3847,3
462,8	3874,5
463,2	4038,5
463,7	4117,7
464,1	4148,9
464,6	4242,9
465	4298,9
465,5	4388,1
466	4471,9
466,4	4487,5
466,9	4605,5
467,3	4684,3
467,8	4770,5
468,2	4819,9
468,7	4941,1
469,1	4982,7
469,6	5060,7
470	5080,7
470,5	5228,3
470,9	5214,7
471,4	5249,1
471,8	5363,1
472,3	5451,5
472,7	5461,1
473,2	5558,7
473,6	5573,9
474,1	5682,5
474,5	5743,3
475	5799,1
475,4	5830,3
475,9	5874,5
476,4	5955,9
476,8	5925,3
477,3	6015,9
477,7	6062,9
478,2	6160,3
478,6	6175,1
479,1	6146,1
479,5	6212,7
480	6298,9
480,4	6317,3
480,9	6328,3
481,3	6327,3
481,8	6394,7
482,2	6399,5
482,7	6441,9
483,1	6478,3
483,6	6474,3
484	6495,9
484,5	6574,7
484,9	6534,9
485,4	6526,7
485,8	6597,5
486,3	6572,1
486,7	6593,3
487,2	6627,5
487,6	6632,7
488,1	6652,3
488,5	6657,9
489	6563,1
489,4	6684,7
489,9	6627,9
490,4	6675,9
490,8	6596,3
491,3	6601,7
491,7	6592,3
492,2	6620,1
492,6	6602,7
493,1	6525,7
493,5	6572,9
494	6500,1
494,4	6498,1
494,9	6473,7
495,3	6436,9
495,8	6444,3
496,2	6439,1
496,7	6388,3
497,1	6398,1
497,6	6373,5
498	6340,1
498,5	6309,1
498,9	6258,3
499,4	6248,3
499,8	6173,9
500,3	6180,9
500,7	6187,1
501,2	6124,5
501,6	6095,1
502,1	6055,5
502,5	5997,9
503	6004,7
503,4	5947,9
503,9	5920,3
504,3	5888,1
504,8	5850,5
505,2	5799,9
505,7	5777,3
506,1	5706,5
506,6	5664,9
507	5630,3
507,5	5668,1
507,9	5555,3
508,4	5566,1
508,8	5515,1
509,3	5453,5
509,7	5414,1
510,2	5360,3
510,6	5348,5
511,1	5308,5
511,5	5206,9
512	5192,7
512,4	5135,9
512,9	5072,1
513,3	5105,5
513,8	4976,7
514,2	4975,7
514,7	4879,3
515,1	4899,1
515,6	4838,5
516	4791,9
516,5	4754,3
516,9	4692,1
517,4	4605,1
517,8	4586,1
518,3	4559,3
518,7	4501,3
519,2	4462,7
519,6	4353,7
520,1	4296,5
520,5	4294,1
521	4261,5
521,4	4190,3
521,9	4190,7
522,3	4147,5
522,8	4066,7
523,2	4027,5
523,7	4000,1
524,1	3985,7
524,6	3916,9
525	3838,5
525,5	3811,3
525,9	3760,7
526,4	3700,7
526,8	3664,9
527,3	3628,1
527,7	3552,5
528,2	3566,5
528,6	3521,1
529,1	3499,5
529,5	3407,9
530	3383,9
530,4	3346,9
530,9	3297,5
531,3	3282,3
531,8	3234,9
532,2	3168,5
532,6	3166,5
533,1	3130,7
533,5	3093,7
534	3016,3
534,4	2968,7
534,9	2933,9
535,3	2938,3
535,8	2863,5
536,2	2874,3
536,7	2784,9
537,1	2814,5
537,6	2794,3
538	2755,7
538,5	2661,9
538,9	2701,5
539,4	2622,5
539,8	2559,5
540,3	2549,7
540,7	2521,5
541,2	2453,7
541,6	2477,9
542,1	2457,9
542,5	2404,5
543	2368,1
543,4	2338,9
543,9	2329,7
544,3	2303,1
544,8	2207,9
545,2	2299,7
545,7	2212,5
546,1	2196,9
546,5	2143,5
547	2170,3
547,4	2110,1
547,9	2056,3
548,3	2073,1
548,8	2021,9
549,2	2009,7
549,7	1957,9
550,1	1962,5
550,6	1937,5
551	1901,5
551,5	1872,5
551,9	1865,5
552,4	1824,3
552,8	1822,7
553,3	1755,9
553,7	1767,1
554,2	1747,1
554,6	1736,9
555,1	1710,1
555,5	1685,3
555,9	1702,5
556,4	1651,5
556,8	1620,5
557,3	1604,7
557,7	1608,1
558,2	1582,3
558,6	1563,7
559,1	1528,7
559,5	1520,5
560	1474,3
560,4	1505,3
560,9	1429,1
561,3	1472,3
561,8	1420,7
562,2	1416,5
562,7	1403,9
563,1	1411,1
563,6	1347,3
564	1344,5
564,4	1363,3
564,9	1294,1
565,3	1305,3
565,8	1250,9
566,2	1284,3
566,7	1285,7
567,1	1227,5
567,6	1253,5
568	1244,1
568,5	1246,5
568,9	1185,3
569,4	1159,5
569,8	1176,7
570,3	1126,3
570,7	1128,9
571,1	1110,9
571,6	1116,3
572	1081,7
572,5	1096,9
572,9	1077,9
573,4	1049,7
573,8	1056,1
574,3	1047,3
574,7	1014,7
575,2	1035,7
575,6	1019,3
576,1	986,5
576,5	1007,5
576,9	959,1
577,4	958,1
577,8	963,1
578,3	956,5
578,7	922,7
579,2	898,9
579,6	921,7
580,1	897,5
580,5	887,9
581	874,1
581,4	874,5
581,9	878,7
582,3	852,9
582,7	867,9
583,2	802,5
583,6	799,1
584,1	823,9
584,5	801,1
585	809,5
585,4	803,9
585,9	778,1
586,3	756,5
586,8	766,5
587,2	763,5
587,6	773,9
588,1	724,7
588,5	754,9
589	724,3
589,4	742,3
589,9	706,7
590,3	730,3
590,8	719,7
591,2	670,7
591,7	692,1
592,1	695,1
592,5	660,7
593	690,1
593,4	660,9
593,9	683,1
594,3	669,1
594,8	661,7
595,2	655,1
595,7	628,9
596,1	609,1
596,6	644,9
597	621,1
597,4	591,7
597,9	609,9
598,3	587,1
598,8	599,3
599,2	615,7
599,7	580,1
600,1	589,7
600,6	556,1
601	566,7
601,4	559,9
601,9	531,7
602,3	564,3
602,8	550,5
603,2	593,7
603,7	568,7
604,1	548,7
604,6	533,1
605	500,7
605,4	521,5
605,9	527,7
606,3	506,1
606,8	524,5
607,2	522,7
607,7	495,3
608,1	486,7
608,6	509,7
609	472,9
609,4	494,3
609,9	469,3
610,3	481,9
610,8	499,3
611,2	471,3
611,7	446,3
612,1	485,7
612,6	451,1
613	472,9
613,4	442,5
613,9	425,7
614,3	437,3
614,8	433,9
615,2	461,5
615,7	429,7
616,1	447,3
616,6	436,9
617	438,1
617,4	415,3
617,9	410,7
618,3	406,1
618,8	392,5
619,2	417,9
619,7	442,1
620,1	415,7
620,5	366,3
621	419,3
621,4	417,3
621,9	408,5
622,3	377,7
622,8	389,7
623,2	386,3
623,6	391,3
624,1	375,3
624,5	414,9
625	374,7
625,4	396,3
625,9	365,7
626,3	389,1
626,8	370,5
627,2	346,7
627,6	365,9
628,1	351,1
628,5	360,7
629	339,3
629,4	364,1
629,9	362,9
630,3	339,1
630,7	350,9
631,2	344,5
631,6	334,7
632,1	330,9
632,5	300,1
633	343,3
633,4	339,5
633,8	338,7
634,3	338,9
634,7	339,3
635,2	313,1
635,6	323,9
636,1	308,1
636,5	321,5
636,9	305,7
637,4	305,1
637,8	305,5
638,3	283,9
638,7	299,3
639,2	270,3
639,6	297,1
640	304,1
640,5	279,1
640,9	327,3
641,4	283,1
641,8	301,7
642,2	310,7
642,7	280,5
643,1	297,3
643,6	274,3
644	260,3
644,5	280,9
644,9	284,9
645,3	297,9
645,8	272,3
646,2	269,5
646,7	304,1
647,1	288,3
647,6	240,5
648	258,9
648,4	292,9
648,9	320,9
649,3	303,9
649,8	261,5
650,2	258,3
650,6	250,3
651,1	238,1
651,5	270,9
652	246,3
652,4	281,1
652,9	244,7
653,3	239,3
653,7	231,5
654,2	242,3
654,6	270,7
655,1	235,9
655,5	241,7
655,9	245,3
656,4	236,1
656,8	264,3
657,3	205,7
657,7	258,7
658,2	253,3
658,6	232,5
659	255,9
659,5	200,3
659,9	236,5
660,4	253,7
660,8	235,5
661,2	229,9
661,7	214,1
662,1	237,5
662,6	220,3
663	231,1
663,4	239,5
663,9	216,9
664,3	216,9
664,8	200,9
665,2	231,5
665,6	222,3
666,1	209,5
666,5	223,7
667	216,9
667,4	235,5
667,9	223,5
668,3	240,5
668,7	223,7
669,2	181,5
669,6	210,7
670,1	201,7
670,5	215,5
670,9	227,5
671,4	201,3
671,8	221,3
672,3	218,7
672,7	226,7
673,1	176,1
673,6	167,3
674	236,7
674,5	239,5
674,9	212,3
675,3	210,1
675,8	209,7
676,2	205,7
676,7	198,7
677,1	225,1
677,5	187,7
678	218,9
678,4	193,7
678,9	218,5
679,3	178,5
679,7	184,3
680,2	178,1
680,6	162,3
681,1	195,9
681,5	170,1
681,9	170,7
682,4	190,5
682,8	176,9
683,3	157,5
683,7	188,9
684,1	188,5
684,6	177,9
685	217,9
685,5	155,3
685,9	175,3
686,3	183,9
686,8	213,3
687,2	166,1
687,7	180,9
688,1	157,7
688,5	164,7
689	146,1
689,4	180,5
689,9	203,7
690,3	179,9
690,7	167,3
691,2	143,5
691,6	157,3
692	208,7
692,5	160,5
692,9	156,9
693,4	158,5
693,8	151,1
694,2	152,9
694,7	136,3
695,1	172,9
695,6	172,1
696	163,1
696,4	155,5
696,9	150,7
697,3	175,7
697,8	169,3
698,2	152,5
698,6	164,9
699,1	123,5
699,5	140,9
699,9	144,7
700,4	142,5
700,8	148,3
701,3	160,5
701,7	164,5
702,1	151,5
702,6	158,9
703	136,3
703,5	151,3
703,9	141,9
704,3	151,9
704,8	119,5
705,2	129,1
705,6	143,5
706,1	128,5
706,5	174,9
707	154,1
707,4	149,5
707,8	152,1
708,3	169,5
708,7	123,7
709,2	157,1
709,6	107,1
710	121,1
710,5	131,5
710,9	134,5
711,3	138,9
711,8	143,5
712,2	158,3
712,7	141,9
713,1	152,5
713,5	112,5
714	145,5
714,4	121,3
714,8	138,3
715,3	134,1
715,7	133,5
716,2	133,3
716,6	130,7
717	104,7
717,5	130,1
717,9	136,9
718,3	111,5
718,8	129,1
719,2	156,7
719,7	141,7
720,1	131,3
720,5	116,3
721	134,5
721,4	127,3
721,8	119,3
722,3	116,3
722,7	129,9
723,2	149,1
723,6	155,1
724	131,5
724,5	113,1
724,9	129,5
725,3	139,5
725,8	115,1
726,2	123,1
726,7	97,3
727,1	125,9
727,5	128,1
728	101,5
728,4	115,3
728,8	120,5
729,3	129,5
729,7	108,9
730,1	106,1
730,6	100,3
731	100,1
731,5	116,5
731,9	93,7
732,3	115,3
732,8	90,1
733,2	125,7
733,6	105,7
734,1	100,9
734,5	123,9
734,9	124,1
735,4	83,7
735,8	109,7
736,3	93,1
736,7	113,5
737,1	126,3
737,6	94,3
738	94,1
738,4	114,1
738,9	65,5
739,3	105,9
739,7	105,3
740,2	125,7
740,6	92,9
741,1	112,7
741,5	102,5
741,9	73,7
742,4	107,7
742,8	52,3
743,2	102,9
743,7	134,1
744,1	104,9
744,5	121,9
745	91,1
745,4	103,5
745,8	90,9
746,3	90,9
746,7	104,5
747,2	98,7
747,6	84,1
748	91,9
748,5	106,3
748,9	89,1
749,3	104,1
749,8	82,1
750,2	99,3
750,6	77,9
751,1	71,1
751,5	76,9
751,9	63,1
752,4	59,3
752,8	79,3
753,3	97,5
753,7	100,7
754,1	96,5
754,6	76,9
755	77,9
755,4	87,1
755,9	98,5
756,3	99,3
756,7	65,3
757,2	100,5
757,6	80,7
758	106,3
758,5	76,5
758,9	98,5
759,3	57,5
759,8	60,9
760,2	96,3
760,6	87,5
761,1	73,5
761,5	68,1
761,9	67,7
762,4	92,9
762,8	112,5
763,3	92,9
763,7	82,5
764,1	75,5
764,6	90,9
765	47,3
765,4	72,3
765,9	78,5
766,3	73,1
766,7	78,1
767,2	83,1
767,6	79,9
768	60,9
768,5	50,3
768,9	69,9
769,3	46,3
769,8	34,3
770,2	60,5
770,6	59,3
771,1	56,3
771,5	69,3
771,9	65,9
772,4	72,3
772,8	64,7
773,2	44,9
773,7	87,9
774,1	78,5
774,5	80,5
775	62,7
775,4	55,1
775,8	96,5
776,3	79,3
776,7	50,3
777,1	94,1
777,6	85,9
778	74,3
778,4	59,9
778,9	84,3
779,3	98,7
779,7	57,5
780,2	59,9
780,6	75,9
781	94,9
781,5	64,1
781,9	55,1
782,3	45,3
782,8	70,5
783,2	54,3
783,6	70,9
784,1	72,5
784,5	44,5
784,9	81,3
785,4	59,1
785,8	45,7
786,2	32,1
786,7	50,1
787,1	75,5
787,5	59,9
788	53,1
788,4	37,3
788,8	64,3
789,3	61,9
789,7	50,3
790,1	65,5
790,6	79,7
791	68,7
791,4	39,3
791,9	68,3
792,3	50,3
792,7	48,9
793,2	21,1
793,6	26,1
794	56,7
794,5	72,5
794,9	51,5
795,3	25,9
795,8	58,1
796,2	53,1
796,6	54,1
797,1	61,9
797,5	43,5
797,9	48,3
798,4	84,9
798,8	66,7
799,2	40,9
799,7	65,1
800,1	47,9
800,5	46,1
801	8,5
801,4	64,7
801,8	42,9
802,2	74,1
802,7	41,1
803,1	11,1
803,5	51,3
804	56,9
804,4	69,7
804,8	52,5
805,3	10,9
805,7	69,3
806,1	22,5
806,6	30,3
807	73,3
807,4	50,9
807,9	15,5
808,3	52,1
808,7	23,3
809,2	46,1
809,6	48,9
810	38,9
810,4	53,7
810,9	60,3
811,3	36,7
811,7	38,3
812,2	47,3
812,6	66,1
813	68,1
813,5	13,5
813,9	46,3
814,3	40,9
814,8	39,1
815,2	20,1
815,6	44,7
816,1	69,1
816,5	46,9
816,9	49,5
817,3	2,5
817,8	17,9
818,2	76,1
818,6	14,9
819,1	17,1
819,5	74,9
819,9	46,7
820,4	26,5
820,8	25,7
821,2	50,9
821,7	25,9
822,1	20,1
822,5	50,5
822,9	27,1
823,4	51,3
823,8	26,7
824,2	35,1
824,7	46,3
825,1	35,3
825,5	41,9
826	29,9
826,4	24,7
826,8	65,5
827,3	55,7
827,7	26,5
828,1	28,5
828,5	17,5
829	57,9
829,4	40,9
829,8	57,5
830,3	8,3
830,7	47,1
831,1	9,7
831,6	18,7
832	23,7
832,4	53,1
832,8	57,7
833,3	29,3
833,7	33,9
834,1	31,3
834,6	18,9
835	42,3
835,4	30,5
835,8	-10,5
836,3	25,1
836,7	56,3
837,1	18,9
837,6	39,9
838	51,3
838,4	49,1
838,9	21,5
839,3	42,7
839,7	18,3
840,1	23,5
840,6	30,9
841	21,9
841,4	0,1
841,9	12,1
842,3	57,5
842,7	17,7
843,1	42,9
843,6	15,7
844	26,9
844,4	10,7
844,9	39,9
845,3	24,5
845,7	41,9
846,2	18,5
846,6	23,7
847	-9,1
847,4	22,9
847,9	46,1
848,3	34,1
848,7	41,5
849,2	26,1
849,6	33,5
850	27,9
850,4	70,9
850,9	34,1
851,3	15,5
851,7	40,9
852,2	23,5
852,6	26,7
853	37,7
853,4	28,7
853,9	27,9
854,3	26,3
854,7	42,3
855,2	25,1
855,6	22,5
856	13,3
856,4	11,7
856,9	39,1
857,3	16,3
857,7	15,7
858,2	-1,5
858,6	11,9
859	9,9
859,4	18,7
859,9	1,3
860,3	39,7
860,7	29,7
861,1	36,7
861,6	29,5
862	19,5
862,4	39,9
862,9	44,1
863,3	32,9
863,7	11,5
864,1	54,9
864,6	20,3
865	48,3
865,4	42,5
865,9	11,9
866,3	10,7
866,7	40,7
867,1	-10,5
867,6	8,9
868	24,9
868,4	20,9
868,8	51,1
869,3	14,1
869,7	15,3
870,1	18,5
870,6	24,3
871	-20,9
871,4	19,7
871,8	38,9
872,3	75,3
872,7	-41,3
873,1	20,1
873,5	56,3
874	18,9
874,4	27,9
874,8	9,3
875,3	8,3
875,7	15,3
876,1	10,3
876,5	11,9
877	8,1
877,4	2,1
877,8	13,3
878,2	8,9
878,7	26,3
879,1	15,7
879,5	-0,9
879,9	16,7
880,4	35,9
880,8	-2,7
881,2	38,3
881,7	51,9
882,1	5,1
882,5	25,7
882,9	4,3
883,4	-3,7
883,8	8,7
884,2	-13,3
884,6	-5,9
885,1	6,5
885,5	-14,9
885,9	12,3
886,3	21,1
886,8	-15,3
887,2	-24,5
887,6	25,5
888	13,1
888,5	-3,9
888,9	9,7
889,3	9,5
889,8	12,9
890,2	14,7
890,6	32,3
891	31,9
891,5	11,1
891,9	15,3
892,3	-4,9
892,7	6,9
893,2	25,9
893,6	26,1
894	22,1
894,4	8,5
894,9	-0,7
895,3	8,9
895,7	46,5
896,1	31,3
896,6	15,7
897	16,3
897,4	47,7
897,8	23,5
898,3	-4,3
898,7	8,1
899,1	20,1
899,5	19,1
900	-1,3
900,4	-1,7
900,8	20,5
901,2	10,7
901,7	-1,5
902,1	-13,7
902,5	34,7
902,9	4,5
903,4	12,7
903,8	20,1
904,2	16,3
904,6	-3,3
905,1	-17,9
905,5	7,9
905,9	12,7
906,3	-6,5
906,8	14,5
907,2	7,1
907,6	19,5
908	-14,9
908,5	22,1
908,9	-15,1
909,3	5,7
909,7	21,1
910,2	20,3
910,6	-0,5
911	9,5
911,4	10,9
911,9	19,1
912,3	11,1
912,7	-3,9
913,1	4,5
913,6	0,7
914	-11,9
914,4	7,7
914,8	-10,1
915,3	-0,7
915,7	9,9
916,1	-6,7
916,5	13,5
916,9	25,5
917,4	-0,9
917,8	-2,7
918,2	0,5
918,6	15,1
919,1	-5,9
919,5	-11,1
919,9	4,5
920,3	28,5
920,8	5,3
921,2	33,7
921,6	31,1
922	-24,1
922,5	22,3
922,9	13,7
923,3	-7,1
923,7	11,5
924,2	9,5
924,6	23,5
925	36,1
925,4	4,9
925,8	14,1
926,3	-14,7
926,7	-7,9
927,1	7,5
927,5	8,9
928	25,5
928,4	13,5
928,8	7,9
929,2	-3,1
929,7	-7,1
930,1	10,9
930,5	38,1
930,9	-10,1
931,3	6,7
931,8	-18,5
932,2	2,7
932,6	19,7
933	7,1
933,5	22,9
933,9	28,9
934,3	24,7
934,7	14,1
935,2	18,3
935,6	26,7
936	-7,9
936,4	19,5
936,8	19,5
937,3	2,3
937,7	-2,5
938,1	30,1
938,5	6,5
939	-31,3
939,4	-0,9
939,8	18,3
940,2	-18,1
940,6	-11,9
941,1	12,5
941,5	6,9
941,9	28,1
942,3	1,5
942,8	11,5
943,2	4,1
943,6	13,1
944	-13,7
944,4	-3,7
944,9	9,7
945,3	38,3
945,7	-3,5
946,1	19,3
946,6	25,3
947	3,5
947,4	-12,3
947,8	17,7
948,2	-15,5
948,7	-4,3
949,1	0,1
949,5	-8,7
949,9	-7,1
950,3	-22,9
950,8	-2,5
951,2	33,5
951,6	-12,9
952	11,3
952,5	15,9
952,9	6,1
953,3	-5,3
953,7	14,7
954,1	17,1
954,6	13,3
955	3,5
955,4	11,1
955,8	-2,1
956,2	-10,3
956,7	-1,9
957,1	-17,9
957,5	30,3
957,9	19,5
958,3	-12,9
958,8	14,3
959,2	1,7
959,6	-20,1
960	-2,1
960,5	6,1
960,9	3,9
961,3	-14,1
961,7	-17,7
962,1	-0,7
962,6	44,1
963	0,7
963,4	-0,7
963,8	8,9
964,2	1,9
964,7	1,3
965,1	-13,1
965,5	26,5
965,9	-18,5
966,3	18,7
966,8	19,7
967,2	-6,1
967,6	8,3
968	11,1
968,4	6,9
968,9	7,5
969,3	6,5
969,7	38,7
970,1	13,7
970,5	15,7
971	3,5
971,4	25,7
971,8	-11,1
972,2	-0,1
972,6	-18,1
973,1	-1,1
973,5	-8,7
973,9	20,9
974,3	12,9
974,7	14,7
975,2	10,3
975,6	0,1
976	15,1
976,4	13,9
976,8	5,9
977,3	3,9
977,7	3,5
978,1	-2,3
978,5	20,9
978,9	8,7
979,4	8,1
979,8	43,3
980,2	0,3
980,6	23,7
981	-11,3
981,5	-15,3
981,9	24,3
982,3	-6,3
982,7	12,7
983,1	18,9
983,6	5,5
984	25,1
984,4	1,9
984,8	10,1
985,2	-23,1
985,6	0,3
986,1	14,3
986,5	13,9
986,9	25,3
987,3	6,3
987,7	17,9
988,2	16,1
988,6	15,7
989	11,5
989,4	23,7
989,8	25,1
990,3	6,9
990,7	19,5
991,1	15,7
991,5	11,5
991,9	20,1
992,3	32,9
992,8	-1,1
993,2	30,1
993,6	-12,7
994	-13,3
994,4	-12,5
994,9	4,1
995,3	7,9
995,7	24,7
996,1	2,7
996,5	39,1
996,9	3,3
997,4	-16,7
997,8	9,3
998,2	-7,9
998,6	4,9
999	6,3
999,5	-8,1
999,9	25,9
1000,3	1,1
1000,7	5,7
1001,1	-22,7
1001,5	-28,7
1002	11,3
1002,4	0,7
1002,8	13,9
1003,2	11,9
1003,6	-5,5
1004	-22,1
1004,5	14,3
1004,9	3,1
1005,3	31,1
1005,7	-5,7
1006,1	30,3
1006,6	7,3
1007	-0,1
1007,4	-1,1
1007,8	10,1
1008,2	1,1
1008,6	24,7
1009,1	10,7
1009,5	27,7
1009,9	4,9
1010,3	11,9
1010,7	11,5
1011,1	8,7
1011,6	-5,7
1012	-7,9
1012,4	-9,5
1012,8	8,3
1013,2	-11,5
1013,6	27,7
1014,1	6,3
1014,5	0,9
1014,9	18,5
1015,3	15,9
1015,7	11,3
1016,1	-4,1
1016,6	-4,3
1017	9,1
1017,4	2,7
1017,8	13,1
1018,2	22,9
1018,6	-26,3
1019,1	0,3
1019,5	-29,3
1019,9	3,1
1020,3	0,7
1020,7	26,1
1021,1	-4,5
1021,6	24,5
1022	-8,9
1022,4	33,7
1022,8	9,3
1023,2	5,1
1023,6	-0,9
1024,1	-29,3
1024,5	-10,9
1024,9	14,3
1025,3	17,1
1025,7	12,9
1026,1	31,7
1026,6	4,3
1027	19,3
1027,4	19,7
1027,8	12,9
1028,2	-6,7
1028,6	3,9
1029	2,3
1029,5	38,5
1029,9	9,5
1030,3	1,3
1030,7	10,7
1031,1	9,9
1031,5	36,3
1032	-35,3
1032,4	11,1
1032,8	48,7
1033,2	-23,5
1033,6	7,3
1034	5,9
1034,4	7,3
1034,9	-15,5
1035,3	9,3
1035,7	20,1
1036,1	-1,1
1036,5	27,7
1036,9	25,1
1037,4	-10,1
1037,8	38,7
1038,2	-22,3
1038,6	6,3
1039	3,7
1039,4	19,5
1039,8	-22,3
1040,3	39,3
1040,7	12,7
1041,1	13,7
1041,5	18,7
1041,9	-1,9
1042,3	32,1
1042,7	-40,7
1043,2	-6,7
1043,6	33,3
1044	-14,5
1044,4	20,9
1044,8	13,3
1045,2	-1,7
1045,6	-24,1
1046,1	7,5
1046,5	8,3
1046,9	21,9
1047,3	-5,7
1047,7	13,1
1048,1	23,3
1048,5	11,9
1049	13,3
1049,4	-22,3
1049,8	-10,3
1050,2	47,9
1050,6	12,3
1051	-20,3
1051,4	11,9
1051,9	-1,1
1052,3	-16,9
1052,7	20,9
1053,1	-14,3
1053,5	19,7
1053,9	-3,1
1054,3	0,9
1054,8	2,5
1055,2	10,3
1055,6	22,9
1056	-5,5
1056,4	25,9
1056,8	-7,9
1057,2	-11,7
1057,6	-4,1
1058,1	7,3
1058,5	12,7
1058,9	15,9
1059,3	-3,9
1059,7	2,5
1060,1	31,7
1060,5	27,1
1061	12,7
1061,4	17,5
1061,8	14,3
1062,2	-6,7
1062,6	0,5
1063	15,1
1063,4	7,1
1063,8	9,3
1064,3	3,1
1064,7	9,1
1065,1	10,9
1065,5	25,5
1065,9	28,5
1066,3	-12,3
1066,7	-27,3
1067,1	-2,7
1067,6	0,9
1068	18,1
1068,4	38,3
1068,8	1,1
1069,2	17,5
1069,6	18,1
1070	-12,1
1070,4	15,7
1070,9	16,5
1071,3	-19,3
1071,7	-13,3
1072,1	-0,7
1072,5	-6,9
1072,9	8,1
1073,3	27,1
1073,7	11,7
1074,2	7,9
1074,6	4,3
1075	17,3
1075,4	1,9
1075,8	-9,3
1076,2	-24,5
1076,6	28,9
1077	-4,1
1077,5	7,1
1077,9	-11,5
1078,3	-11,3
1078,7	-14,5
1079,1	24,3
1079,5	-18,7
1079,9	5,7
1080,3	-4,5
1080,7	-16,5
1081,2	14,1
1081,6	33,1
1082	23,5
1082,4	14,1
1082,8	5,3
1083,2	-24,5
1083,6	1,1
1084	-0,3
1084,5	2,7
1084,9	15,3
1085,3	2,5
1085,7	8,1
1086,1	-37,1
1086,5	23,7
1086,9	-19,5
1087,3	6,7
1087,7	-21,5
1088,2	-36,1
1088,6	0,5
1089	15,5
1089,4	-14,7
1089,8	14,3
1090,2	3,5
1090,6	7,7
1091	23,9
1091,4	-32,3
1091,9	18,3
1092,3	-0,1
1092,7	27,9
1093,1	2,9
1093,5	30,9
1093,9	10,1
1094,3	15,5
1094,7	33,7
1095,1	-5,5
1095,5	-8,9
1096	1,1
1096,4	38,9
1096,8	15,5
1097,2	6,1
1097,6	-12,3
1098	-2,5
1098,4	18,5
1098,8	-1,1
1099,2	18,5
1099,6	-4,9
1100,1	5,5
1100,5	4,5
1100,9	24,3
1101,3	7,7
1101,7	10,1
1102,1	13,7
1102,5	6,1
1102,9	7,9
1103,3	8,7
1103,7	-0,5
1104,2	0,3
1104,6	18,9
1105	-13,7
1105,4	-0,1
1105,8	8,7
1106,2	7,9
1106,6	7,5
1107	0,5
1107,4	-2,3
1107,8	2,1
1108,3	2,1
