Data from Subt2_00023.txt Node
Date: Wed Aug 02 19:22:23 MSK 2023
User: vat
Spectrometer: MAYP114033
Trigger mode: 0
Integration Time (sec): 7,000000E-1
Scans to average: 5
Electric dark correction enabled: true
Nonlinearity correction enabled: false
Boxcar width: 0
XAxis mode: Wavelengths
Number of Pixels in Spectrum: 2068
>>>>>Begin Spectral Data<<<<<
199,4	-0,333
199,9	0,267
200,4	0,467
200,8	1,867
201,3	-23,533
201,8	7,867
202,2	-6,533
202,7	12,267
203,2	5,867
203,6	11,667
204,1	7,267
204,6	15,667
205	-0,933
205,5	-6,333
206	-8,933
206,4	2,267
206,9	-13,333
207,4	-2,933
207,8	19,867
208,3	-19,133
208,8	-4,133
209,2	-10,333
209,7	-13,133
210,2	4,267
210,6	18,467
211,1	22,867
211,5	-7,733
212	-14,333
212,5	-1,933
212,9	-22,733
213,4	-5,133
213,9	8,667
214,3	14,467
214,8	-25,533
215,3	11,667
215,7	13,467
216,2	7,867
216,7	2,867
217,1	-4,533
217,6	-13,933
218,1	-12,133
218,5	19,867
219	-8,733
219,5	-24,933
219,9	-17,933
220,4	-2,733
220,9	-1,733
221,3	-10,933
221,8	0,267
222,3	8,667
222,7	17,467
223,2	2,467
223,6	22,867
224,1	-9,533
224,6	-6,933
225	-14,533
225,5	-6,933
226	4,067
226,4	8,867
226,9	-30,333
227,4	16,867
227,8	-24,533
228,3	32,667
228,8	-2,733
229,2	8,267
229,7	-7,533
230,2	-31,133
230,6	-18,733
231,1	3,267
231,5	-12,533
232	10,867
232,5	23,067
232,9	7,467
233,4	26,467
233,9	5,067
234,3	-10,733
234,8	-15,133
235,3	2,667
235,7	-7,333
236,2	-9,533
236,7	5,267
237,1	9,667
237,6	-6,333
238,1	3,467
238,5	17,267
239	-8,533
239,4	-3,133
239,9	0,067
240,4	23,867
240,8	-14,733
241,3	-13,933
241,8	8,667
242,2	5,867
242,7	13,467
243,2	-28,333
243,6	2,467
244,1	-8,533
244,6	-31,733
245	-7,533
245,5	-14,333
245,9	-6,133
246,4	-15,533
246,9	19,667
247,3	0,667
247,8	29,467
248,3	-12,533
248,7	10,467
249,2	3,467
249,7	-25,933
250,1	-10,133
250,6	5,267
251	-16,933
251,5	11,267
252	-5,933
252,4	-4,733
252,9	-7,133
253,4	-13,133
253,8	10,067
254,3	-9,933
254,8	7,467
255,2	16,667
255,7	8,267
256,1	-16,733
256,6	-28,133
257,1	19,867
257,5	5,467
258	-1,133
258,5	8,667
258,9	19,667
259,4	-13,933
259,9	10,667
260,3	-37,933
260,8	15,467
261,2	22,267
261,7	23,067
262,2	11,067
262,6	2,667
263,1	-32,733
263,6	3,067
264	8,667
264,5	14,667
264,9	-4,133
265,4	-2,133
265,9	6,267
266,3	-16,733
266,8	9,867
267,3	-35,733
267,7	13,067
268,2	-4,733
268,7	22,067
269,1	3,067
269,6	23,067
270	-6,733
270,5	-29,733
271	14,467
271,4	18,467
271,9	-7,733
272,4	-7,933
272,8	7,467
273,3	21,467
273,7	-5,333
274,2	14,867
274,7	-2,133
275,1	17,667
275,6	-51,133
276,1	1,267
276,5	-22,533
277	-38,733
277,4	20,067
277,9	7,467
278,4	13,267
278,8	-16,133
279,3	25,867
279,8	7,667
280,2	-2,733
280,7	-21,333
281,1	6,867
281,6	-48,733
282,1	25,667
282,5	4,467
283	-4,333
283,4	-25,133
283,9	-5,733
284,4	-3,333
284,8	-23,933
285,3	1,667
285,8	-8,933
286,2	-0,933
286,7	23,867
287,1	3,267
287,6	18,867
288,1	-17,733
288,5	23,667
289	15,667
289,5	-22,733
289,9	-3,733
290,4	-12,533
290,8	5,467
291,3	2,467
291,8	12,667
292,2	3,667
292,7	12,467
293,1	-2,933
293,6	23,267
294,1	2,267
294,5	-22,933
295	-10,933
295,5	29,067
295,9	27,667
296,4	-17,933
296,8	-7,333
297,3	-1,733
297,8	7,467
298,2	-2,333
298,7	-9,533
299,1	13,067
299,6	-22,333
300,1	-9,133
300,5	2,467
301	13,067
301,5	-8,333
301,9	-43,933
302,4	7,667
302,8	14,267
303,3	-43,133
303,8	-18,333
304,2	6,067
304,7	9,867
305,1	14,667
305,6	-8,933
306,1	3,867
306,5	-34,933
307	-1,333
307,4	2,667
307,9	-32,133
308,4	-1,133
308,8	0,267
309,3	-9,333
309,8	9,467
310,2	-9,333
310,7	3,867
311,1	3,667
311,6	7,467
312,1	1,267
312,5	9,867
313	23,267
313,4	15,667
313,9	8,267
314,4	-10,133
314,8	-16,933
315,3	23,067
315,7	4,467
316,2	15,067
316,7	5,267
317,1	-4,933
317,6	18,067
318	-25,533
318,5	21,667
319	-17,533
319,4	14,667
319,9	-6,933
320,3	-11,133
320,8	-1,733
321,3	-9,733
321,7	14,267
322,2	-7,533
322,6	11,267
323,1	-9,733
323,6	-5,333
324	-28,733
324,5	-13,133
324,9	-22,733
325,4	-13,733
325,9	-10,333
326,3	3,267
326,8	-3,133
327,2	1,067
327,7	33,067
328,2	-3,133
328,6	-5,933
329,1	15,467
329,5	9,067
330	31,667
330,5	-5,933
330,9	-6,733
331,4	20,267
331,8	-2,533
332,3	19,467
332,8	17,267
333,2	10,867
333,7	5,867
334,1	10,867
334,6	3,467
335,1	-7,933
335,5	17,667
336	32,667
336,4	33,467
336,9	-12,933
337,4	-3,333
337,8	8,067
338,3	4,467
338,7	3,267
339,2	-18,933
339,7	0,667
340,1	3,467
340,6	-8,733
341	46,067
341,5	17,267
342	27,467
342,4	38,467
342,9	-10,733
343,3	37,667
343,8	0,067
344,2	-24,333
344,7	1,467
345,2	26,467
345,6	-5,133
346,1	40,667
346,5	27,867
347	7,667
347,5	37,867
347,9	24,067
348,4	34,067
348,8	17,867
349,3	24,467
349,8	64,467
350,2	28,467
350,7	37,067
351,1	35,467
351,6	56,467
352	50,267
352,5	70,467
353	104,067
353,4	135,067
353,9	170,467
354,3	190,867
354,8	239,667
355,3	289,267
355,7	348,667
356,2	404,067
356,6	479,067
357,1	613,467
357,5	684,867
358	853,267
358,5	994,067
358,9	1111,867
359,4	1264,267
359,8	1458,267
360,3	1703,667
360,8	1935,067
361,2	2283,067
361,7	2583,267
362,1	2938,667
362,6	3289,467
363	3660,667
363,5	4091,467
364	4585,867
364,4	5004,267
364,9	5447,267
365,3	5937,067
365,8	6366,267
366,3	6750,067
366,7	7094,467
367,2	7400,467
367,6	7623,067
368,1	7757,067
368,5	7918,667
369	7940,267
369,5	7969,467
369,9	7843,067
370,4	7645,267
370,8	7480,467
371,3	7211,067
371,7	6906,467
372,2	6621,467
372,7	6190,067
373,1	5910,467
373,6	5511,667
374	5132,467
374,5	4784,467
374,9	4424,067
375,4	4071,667
375,9	3769,067
376,3	3432,867
376,8	3150,667
377,2	2888,867
377,7	2644,067
378,2	2361,667
378,6	2190,067
379,1	1959,667
379,5	1837,867
380	1660,467
380,4	1533,867
380,9	1379,067
381,4	1265,467
381,8	1170,867
382,3	1086,667
382,7	999,467
383,2	936,267
383,6	863,667
384,1	786,267
384,6	730,067
385	642,467
385,5	637,067
385,9	552,667
386,4	576,067
386,8	521,467
387,3	487,467
387,7	417,867
388,2	408,667
388,7	374,867
389,1	358,067
389,6	289,467
390	302,667
390,5	278,867
390,9	233,267
391,4	230,267
391,9	201,667
392,3	199,867
392,8	191,067
393,2	190,867
393,7	146,067
394,1	143,067
394,6	126,467
395,1	123,667
395,5	107,067
396	104,667
396,4	115,267
396,9	101,867
397,3	117,067
397,8	86,267
398,2	56,667
398,7	86,467
399,2	63,267
399,6	36,867
400,1	55,067
400,5	55,467
401	64,867
401,4	61,667
401,9	50,267
402,4	50,267
402,8	45,467
403,3	46,667
403,7	72,267
404,2	55,067
404,6	38,667
405,1	52,667
405,5	8,467
406	41,867
406,5	12,267
406,9	20,467
407,4	31,067
407,8	17,667
408,3	48,667
408,7	40,867
409,2	52,267
409,6	4,667
410,1	52,267
410,6	18,267
411	25,667
411,5	24,067
411,9	14,667
412,4	37,067
412,8	36,667
413,3	35,867
413,7	26,667
414,2	13,467
414,7	38,067
415,1	57,467
415,6	62,467
416	27,667
416,5	34,067
416,9	82,867
417,4	48,867
417,8	71,467
418,3	56,267
418,8	30,867
419,2	13,867
419,7	32,467
420,1	52,067
420,6	30,467
421	34,067
421,5	60,667
421,9	85,667
422,4	67,467
422,8	37,867
423,3	42,067
423,8	48,467
424,2	32,467
424,7	53,267
425,1	65,467
425,6	33,667
426	61,867
426,5	65,667
426,9	77,667
427,4	56,867
427,9	75,667
428,3	89,067
428,8	67,867
429,2	60,067
429,7	99,867
430,1	74,267
430,6	80,667
431	79,467
431,5	80,267
431,9	112,067
432,4	96,467
432,8	100,067
433,3	109,867
433,8	102,067
434,2	123,267
434,7	132,267
435,1	116,267
435,6	106,667
436	138,467
436,5	133,667
436,9	133,667
437,4	149,067
437,8	146,267
438,3	124,267
438,8	138,267
439,2	164,867
439,7	150,867
440,1	164,067
440,6	166,267
441	185,667
441,5	183,667
441,9	182,667
442,4	184,667
442,8	218,067
443,3	212,267
443,7	264,467
444,2	231,067
444,7	248,467
445,1	256,667
445,6	271,267
446	278,667
446,5	277,467
446,9	312,267
447,4	301,267
447,8	324,267
448,3	357,667
448,7	383,867
449,2	367,067
449,6	341,067
450,1	367,067
450,6	384,267
451	398,867
451,5	420,667
451,9	457,267
452,4	429,867
452,8	487,867
453,3	468,467
453,7	502,267
454,2	502,467
454,6	515,667
455,1	559,467
455,5	587,467
456	571,267
456,4	611,467
456,9	627,867
457,3	596,067
457,8	638,667
458,3	640,067
458,7	682,467
459,2	732,067
459,6	747,467
460,1	708,467
460,5	757,067
461	753,667
461,4	776,267
461,9	797,667
462,3	858,267
462,8	841,067
463,2	905,467
463,7	910,067
464,1	896,267
464,6	951,867
465	930,667
465,5	971,067
466	981,867
466,4	997,867
466,9	1005,867
467,3	1073,867
467,8	1090,267
468,2	1096,267
468,7	1129,267
469,1	1166,067
469,6	1188,867
470	1187,867
470,5	1248,267
470,9	1191,267
471,4	1232,667
471,8	1232,867
472,3	1317,067
472,7	1247,267
473,2	1281,267
473,6	1335,867
474,1	1343,267
474,5	1368,067
475	1360,667
475,4	1405,667
475,9	1409,467
476,4	1420,667
476,8	1465,067
477,3	1445,467
477,7	1466,867
478,2	1453,267
478,6	1525,267
479,1	1474,067
479,5	1510,267
480	1531,267
480,4	1507,867
480,9	1553,267
481,3	1550,467
481,8	1563,867
482,2	1534,467
482,7	1572,667
483,1	1581,267
483,6	1608,267
484	1618,667
484,5	1658,467
484,9	1605,467
485,4	1621,067
485,8	1698,067
486,3	1626,267
486,7	1630,467
487,2	1639,667
487,6	1671,867
488,1	1604,267
488,5	1672,867
489	1642,667
489,4	1671,667
489,9	1651,267
490,4	1657,267
490,8	1661,867
491,3	1639,667
491,7	1666,867
492,2	1645,467
492,6	1648,267
493,1	1602,067
493,5	1684,867
494	1630,667
494,4	1623,467
494,9	1606,267
495,3	1637,467
495,8	1610,667
496,2	1617,067
496,7	1632,067
497,1	1648,267
497,6	1626,467
498	1601,467
498,5	1612,267
498,9	1581,467
499,4	1545,867
499,8	1580,867
500,3	1577,867
500,7	1563,267
501,2	1556,467
501,6	1573,867
502,1	1547,267
502,5	1510,267
503	1570,467
503,4	1521,667
503,9	1522,467
504,3	1495,267
504,8	1506,267
505,2	1468,267
505,7	1467,867
506,1	1464,267
506,6	1429,067
507	1449,267
507,5	1445,267
507,9	1444,067
508,4	1423,667
508,8	1431,267
509,3	1408,067
509,7	1403,067
510,2	1361,267
510,6	1403,867
511,1	1394,667
511,5	1324,067
512	1369,467
512,4	1340,867
512,9	1328,267
513,3	1331,867
513,8	1285,867
514,2	1300,067
514,7	1276,267
515,1	1313,867
515,6	1294,867
516	1249,267
516,5	1279,267
516,9	1248,267
517,4	1265,667
517,8	1217,467
518,3	1186,667
518,7	1217,667
519,2	1182,267
519,6	1169,667
520,1	1147,267
520,5	1181,467
521	1158,867
521,4	1106,067
521,9	1147,067
522,3	1127,267
522,8	1106,867
523,2	1083,867
523,7	1073,467
524,1	1063,867
524,6	1067,867
525	1053,067
525,5	1042,067
525,9	1043,467
526,4	1036,067
526,8	1019,667
527,3	1004,867
527,7	1007,867
528,2	993,067
528,6	985,667
529,1	973,267
529,5	951,667
530	969,267
530,4	973,267
530,9	918,067
531,3	948,667
531,8	920,067
532,2	898,067
532,6	897,867
533,1	914,667
533,5	905,867
534	859,067
534,4	881,867
534,9	841,067
535,3	863,067
535,8	849,067
536,2	846,867
536,7	840,067
537,1	830,867
537,6	817,467
538	815,267
538,5	777,067
538,9	802,267
539,4	803,067
539,8	784,267
540,3	776,267
540,7	765,467
541,2	772,267
541,6	762,867
542,1	782,267
542,5	758,067
543	745,267
543,4	723,867
543,9	762,467
544,3	727,467
544,8	704,267
545,2	757,667
545,7	738,267
546,1	700,867
546,5	683,267
547	705,067
547,4	708,867
547,9	668,467
548,3	682,667
548,8	654,267
549,2	641,667
549,7	677,067
550,1	655,067
550,6	669,267
551	669,467
551,5	630,067
551,9	632,667
552,4	647,067
552,8	606,067
553,3	598,267
553,7	600,467
554,2	598,467
554,6	603,467
555,1	568,667
555,5	583,467
555,9	601,067
556,4	589,067
556,8	576,267
557,3	574,067
557,7	587,067
558,2	560,867
558,6	557,467
559,1	592,267
559,5	545,267
560	536,867
560,4	531,067
560,9	521,667
561,3	530,467
561,8	509,467
562,2	518,467
562,7	528,267
563,1	528,467
563,6	523,467
564	501,067
564,4	508,467
564,9	477,067
565,3	485,867
565,8	502,467
566,2	482,867
566,7	500,267
567,1	467,467
567,6	476,467
568	509,867
568,5	487,467
568,9	440,667
569,4	458,467
569,8	458,667
570,3	443,067
570,7	474,267
571,1	458,867
571,6	475,267
572	443,067
572,5	440,067
572,9	452,867
573,4	439,667
573,8	423,867
574,3	460,667
574,7	447,067
575,2	417,467
575,6	470,267
576,1	422,667
576,5	439,267
576,9	433,667
577,4	388,267
577,8	433,067
578,3	418,267
578,7	388,867
579,2	388,467
579,6	430,467
580,1	385,667
580,5	404,667
581	409,667
581,4	394,667
581,9	396,267
582,3	369,867
582,7	392,267
583,2	368,267
583,6	349,867
584,1	378,267
584,5	364,667
585	372,467
585,4	373,267
585,9	364,467
586,3	373,467
586,8	378,067
587,2	386,067
587,6	359,067
588,1	353,667
588,5	372,267
589	350,067
589,4	322,067
589,9	345,667
590,3	346,667
590,8	366,867
591,2	313,067
591,7	344,467
592,1	325,667
592,5	323,067
593	332,267
593,4	328,267
593,9	325,267
594,3	320,467
594,8	338,267
595,2	348,667
595,7	331,267
596,1	292,467
596,6	332,867
597	279,867
597,4	323,867
597,9	338,867
598,3	291,867
598,8	321,467
599,2	323,867
599,7	281,067
600,1	298,667
600,6	285,467
601	311,667
601,4	285,467
601,9	315,267
602,3	289,867
602,8	278,667
603,2	318,667
603,7	298,667
604,1	288,267
604,6	279,267
605	276,867
605,4	307,667
605,9	265,667
606,3	290,867
606,8	279,067
607,2	303,267
607,7	231,867
608,1	266,867
608,6	291,467
609	256,467
609,4	275,467
609,9	255,267
610,3	264,867
610,8	276,667
611,2	272,267
611,7	257,267
612,1	260,667
612,6	247,067
613	281,467
613,4	284,067
613,9	253,267
614,3	242,067
614,8	219,467
615,2	279,467
615,7	248,867
616,1	256,067
616,6	252,067
617	239,667
617,4	239,867
617,9	264,467
618,3	227,267
618,8	209,267
619,2	259,867
619,7	252,467
620,1	245,667
620,5	198,267
621	246,067
621,4	228,867
621,9	254,867
622,3	213,667
622,8	225,067
623,2	230,267
623,6	237,667
624,1	221,267
624,5	246,867
625	208,867
625,4	249,067
625,9	243,267
626,3	248,467
626,8	217,267
627,2	192,067
627,6	221,267
628,1	212,067
628,5	196,867
629	213,467
629,4	207,067
629,9	221,867
630,3	222,267
630,7	219,267
631,2	212,467
631,6	191,867
632,1	174,667
632,5	170,067
633	220,467
633,4	216,467
633,8	206,867
634,3	214,867
634,7	208,067
635,2	198,867
635,6	193,067
636,1	199,867
636,5	183,667
636,9	174,467
637,4	203,667
637,8	201,667
638,3	177,467
638,7	193,467
639,2	187,067
639,6	170,067
640	187,067
640,5	154,667
640,9	204,667
641,4	165,267
641,8	192,267
642,2	200,467
642,7	170,867
643,1	178,667
643,6	177,867
644	177,467
644,5	162,867
644,9	176,467
645,3	181,467
645,8	186,667
646,2	171,267
646,7	199,667
647,1	172,667
647,6	153,067
648	182,867
648,4	173,467
648,9	208,467
649,3	193,867
649,8	169,067
650,2	158,467
650,6	146,067
651,1	154,667
651,5	174,067
652	162,067
652,4	168,267
652,9	158,667
653,3	157,467
653,7	164,667
654,2	137,067
654,6	173,067
655,1	138,667
655,5	154,667
655,9	156,667
656,4	171,067
656,8	164,867
657,3	162,867
657,7	154,067
658,2	204,667
658,6	147,267
659	147,867
659,5	101,467
659,9	158,267
660,4	169,467
660,8	156,467
661,2	170,667
661,7	136,267
662,1	121,867
662,6	134,667
663	134,667
663,4	160,467
663,9	137,667
664,3	135,867
664,8	131,067
665,2	145,467
665,6	152,867
666,1	120,267
666,5	160,467
667	103,467
667,4	155,067
667,9	133,667
668,3	182,267
668,7	136,867
669,2	116,867
669,6	144,867
670,1	97,667
670,5	146,267
670,9	144,667
671,4	128,867
671,8	158,467
672,3	142,667
672,7	135,867
673,1	121,467
673,6	116,467
674	161,067
674,5	156,667
674,9	118,467
675,3	126,067
675,8	106,467
676,2	126,267
676,7	122,667
677,1	152,067
677,5	122,267
678	146,467
678,4	122,667
678,9	133,267
679,3	113,667
679,7	117,867
680,2	93,267
680,6	111,267
681,1	148,467
681,5	136,867
681,9	131,667
682,4	122,067
682,8	124,867
683,3	104,267
683,7	110,067
684,1	128,867
684,6	127,867
685	124,267
685,5	114,267
685,9	103,867
686,3	133,467
686,8	113,267
687,2	115,667
687,7	107,267
688,1	109,467
688,5	112,067
689	104,667
689,4	88,467
689,9	132,067
690,3	114,467
690,7	112,067
691,2	106,267
691,6	134,667
692	128,067
692,5	112,267
692,9	111,267
693,4	122,267
693,8	101,667
694,2	115,667
694,7	81,867
695,1	124,067
695,6	107,067
696	112,267
696,4	113,067
696,9	118,467
697,3	114,467
697,8	113,267
698,2	121,667
698,6	135,867
699,1	106,667
699,5	106,867
699,9	68,467
700,4	111,667
700,8	108,667
701,3	128,667
701,7	112,467
702,1	99,467
702,6	106,667
703	111,267
703,5	105,067
703,9	110,867
704,3	115,067
704,8	80,467
705,2	91,067
705,6	93,667
706,1	94,867
706,5	109,467
707	124,267
707,4	82,667
707,8	111,267
708,3	106,267
708,7	124,467
709,2	122,867
709,6	62,467
710	83,267
710,5	96,067
710,9	102,067
711,3	81,067
711,8	74,867
712,2	109,467
712,7	94,067
713,1	105,667
713,5	73,067
714	82,467
714,4	79,267
714,8	99,067
715,3	98,267
715,7	92,467
716,2	120,867
716,6	91,067
717	63,467
717,5	95,867
717,9	102,067
718,3	70,267
718,8	109,067
719,2	93,067
719,7	95,267
720,1	102,267
720,5	98,067
721	72,667
721,4	62,667
721,8	91,067
722,3	87,467
722,7	92,267
723,2	105,267
723,6	92,067
724	117,067
724,5	80,667
724,9	76,467
725,3	83,467
725,8	65,067
726,2	78,667
726,7	54,067
727,1	73,867
727,5	103,467
728	80,267
728,4	114,467
728,8	92,467
729,3	99,667
729,7	66,467
730,1	69,667
730,6	45,667
731	66,467
731,5	61,667
731,9	87,867
732,3	79,667
732,8	58,867
733,2	79,267
733,6	62,867
734,1	63,267
734,5	89,667
734,9	86,467
735,4	66,467
735,8	87,067
736,3	50,867
736,7	93,467
737,1	100,067
737,6	87,867
738	67,467
738,4	56,067
738,9	49,067
739,3	72,667
739,7	91,467
740,2	122,867
740,6	45,867
741,1	81,067
741,5	70,267
741,9	70,467
742,4	78,867
742,8	49,667
743,2	72,467
743,7	70,467
744,1	69,467
744,5	81,267
745	59,067
745,4	90,467
745,8	53,667
746,3	47,667
746,7	88,667
747,2	65,067
747,6	63,667
748	64,867
748,5	53,667
748,9	66,867
749,3	93,667
749,8	58,267
750,2	48,267
750,6	60,667
751,1	56,467
751,5	100,067
751,9	43,667
752,4	69,067
752,8	56,467
753,3	113,467
753,7	66,267
754,1	56,667
754,6	68,267
755	62,467
755,4	60,067
755,9	87,867
756,3	70,267
756,7	32,067
757,2	53,867
757,6	31,067
758	75,867
758,5	78,867
758,9	70,667
759,3	62,667
759,8	58,667
760,2	87,067
760,6	59,467
761,1	54,267
761,5	41,667
761,9	39,467
762,4	68,467
762,8	72,467
763,3	31,467
763,7	67,467
764,1	66,067
764,6	71,067
765	60,467
765,4	53,067
765,9	63,067
766,3	58,867
766,7	49,867
767,2	68,667
767,6	63,867
768	27,067
768,5	32,667
768,9	39,467
769,3	66,467
769,8	38,067
770,2	56,667
770,6	51,267
771,1	26,067
771,5	48,467
771,9	55,067
772,4	48,867
772,8	65,467
773,2	26,067
773,7	56,067
774,1	58,267
774,5	46,467
775	27,667
775,4	29,067
775,8	57,267
776,3	18,667
776,7	53,467
777,1	42,867
777,6	29,267
778	38,267
778,4	38,267
778,9	36,667
779,3	60,267
779,7	58,867
780,2	32,867
780,6	47,867
781	49,867
781,5	7,267
781,9	70,267
782,3	31,267
782,8	64,667
783,2	48,267
783,6	42,867
784,1	56,267
784,5	28,467
784,9	58,267
785,4	34,667
785,8	71,267
786,2	44,667
786,7	61,267
787,1	43,467
787,5	39,067
788	77,667
788,4	27,667
788,8	63,267
789,3	51,667
789,7	51,467
790,1	25,467
790,6	49,467
791	73,467
791,4	35,667
791,9	45,267
792,3	45,467
792,7	30,067
793,2	44,467
793,6	45,067
794	68,467
794,5	20,867
794,9	49,267
795,3	8,667
795,8	52,467
796,2	69,467
796,6	21,267
797,1	24,667
797,5	30,667
797,9	22,867
798,4	45,267
798,8	26,267
799,2	54,267
799,7	32,667
800,1	14,667
800,5	21,467
801	9,867
801,4	39,267
801,8	17,667
802,2	37,867
802,7	31,867
803,1	16,267
803,5	50,267
804	23,467
804,4	34,467
804,8	22,667
805,3	29,267
805,7	25,867
806,1	6,467
806,6	51,067
807	48,267
807,4	39,867
807,9	21,267
808,3	48,067
808,7	27,467
809,2	48,867
809,6	40,467
810	47,067
810,4	24,667
810,9	42,867
811,3	63,267
811,7	43,267
812,2	35,867
812,6	26,667
813	50,067
813,5	2,267
813,9	34,467
814,3	17,067
814,8	16,267
815,2	22,067
815,6	32,867
816,1	42,867
816,5	19,867
816,9	18,467
817,3	14,467
817,8	4,267
818,2	45,067
818,6	29,667
819,1	6,067
819,5	44,867
819,9	47,467
820,4	-9,133
820,8	30,467
821,2	18,267
821,7	-14,733
822,1	26,467
822,5	28,667
822,9	14,467
823,4	23,867
823,8	13,067
824,2	-18,333
824,7	9,267
825,1	29,267
825,5	-4,733
826	25,467
826,4	5,867
826,8	30,867
827,3	36,867
827,7	28,667
828,1	5,667
828,5	3,467
829	-3,533
829,4	34,467
829,8	40,467
830,3	-1,333
830,7	44,267
831,1	9,267
831,6	14,467
832	26,067
832,4	0,467
832,8	36,867
833,3	12,867
833,7	31,867
834,1	30,667
834,6	20,067
835	21,467
835,4	9,867
835,8	-6,333
836,3	21,267
836,7	20,867
837,1	19,867
837,6	12,067
838	24,867
838,4	8,267
838,9	17,867
839,3	30,267
839,7	20,267
840,1	6,667
840,6	-1,933
841	7,467
841,4	-0,133
841,9	45,267
842,3	38,467
842,7	26,267
843,1	32,667
843,6	-4,733
844	23,467
844,4	30,467
844,9	10,867
845,3	8,867
845,7	0,067
846,2	-10,733
846,6	15,467
847	8,267
847,4	-17,733
847,9	34,267
848,3	55,067
848,7	1,867
849,2	1,067
849,6	13,067
850	11,267
850,4	47,667
850,9	15,267
851,3	21,267
851,7	37,467
852,2	19,067
852,6	16,267
853	5,067
853,4	0,667
853,9	6,067
854,3	-6,333
854,7	6,067
855,2	13,667
855,6	8,067
856	-5,933
856,4	13,467
856,9	16,267
857,3	10,667
857,7	-0,133
858,2	-29,133
858,6	12,067
859	5,867
859,4	20,467
859,9	5,667
860,3	16,467
860,7	41,667
861,1	44,267
861,6	28,667
862	37,467
862,4	17,867
862,9	25,667
863,3	20,467
863,7	11,067
864,1	31,867
864,6	21,867
865	25,667
865,4	16,267
865,9	-17,333
866,3	18,467
866,7	-8,133
867,1	1,267
867,6	19,467
868	24,267
868,4	-7,533
868,8	24,267
869,3	41,667
869,7	-19,533
870,1	21,867
870,6	5,867
871	-3,133
871,4	-10,333
871,8	10,667
872,3	-226,933
872,7	-17,933
873,1	7,067
873,5	28,067
874	22,267
874,4	29,267
874,8	17,267
875,3	7,667
875,7	4,867
876,1	-3,133
876,5	12,867
877	20,267
877,4	-13,333
877,8	19,867
878,2	-7,733
878,7	47,867
879,1	10,667
879,5	-4,733
879,9	-3,333
880,4	19,667
880,8	13,667
881,2	23,867
881,7	48,867
882,1	-2,933
882,5	-19,133
882,9	-7,533
883,4	-6,733
883,8	27,667
884,2	-34,533
884,6	5,467
885,1	3,867
885,5	-14,933
885,9	7,467
886,3	7,867
886,8	0,667
887,2	-47,933
887,6	9,267
888	22,267
888,5	-5,933
888,9	-16,933
889,3	22,867
889,8	-24,133
890,2	25,867
890,6	0,467
891	3,867
891,5	21,067
891,9	5,667
892,3	4,467
892,7	2,667
893,2	26,267
893,6	-1,333
894	22,867
894,4	10,067
894,9	8,667
895,3	-0,933
895,7	16,667
896,1	21,867
896,6	5,467
897	22,467
897,4	6,467
897,8	7,667
898,3	-21,333
898,7	-8,133
899,1	14,867
899,5	-10,133
900	7,267
900,4	-7,533
900,8	0,867
901,2	-12,533
901,7	7,867
902,1	-10,133
902,5	3,467
902,9	-3,933
903,4	8,667
903,8	-19,333
904,2	24,067
904,6	-1,733
905,1	-39,333
905,5	-0,533
905,9	20,867
906,3	12,867
906,8	-8,733
907,2	0,667
907,6	-13,733
908	3,067
908,5	-5,533
908,9	-10,133
909,3	7,067
909,7	5,067
910,2	-17,333
910,6	4,467
911	11,667
911,4	-1,333
911,9	0,867
912,3	10,467
912,7	-8,533
913,1	5,867
913,6	-2,933
914	-9,333
914,4	-20,333
914,8	-5,133
915,3	-15,333
915,7	-21,933
916,1	-0,733
916,5	4,267
916,9	27,467
917,4	2,667
917,8	-42,933
918,2	9,667
918,6	12,667
919,1	-11,333
919,5	-15,133
919,9	0,067
920,3	19,267
920,8	6,267
921,2	-0,333
921,6	20,067
922	-5,933
922,5	20,267
922,9	11,267
923,3	-4,333
923,7	11,867
924,2	-19,533
924,6	26,067
925	43,867
925,4	21,667
925,8	0,867
926,3	-4,533
926,7	-9,933
927,1	-0,333
927,5	20,467
928	27,667
928,4	28,267
928,8	-10,333
929,2	3,067
929,7	-6,933
930,1	17,867
930,5	59,067
930,9	-9,133
931,3	9,067
931,8	-10,133
932,2	-23,733
932,6	4,067
933	1,067
933,5	9,667
933,9	16,267
934,3	-1,733
934,7	26,467
935,2	-8,533
935,6	5,467
936	-9,133
936,4	22,467
936,8	5,867
937,3	1,867
937,7	3,867
938,1	29,867
938,5	-4,933
939	-44,133
939,4	-15,333
939,8	26,667
940,2	-4,533
940,6	-10,133
941,1	1,267
941,5	-4,733
941,9	25,667
942,3	-8,733
942,8	8,667
943,2	-15,733
943,6	9,467
944	2,267
944,4	-3,933
944,9	5,467
945,3	25,867
945,7	-9,733
946,1	-5,333
946,6	20,867
947	24,467
947,4	21,067
947,8	31,267
948,2	13,667
948,7	-22,933
949,1	33,067
949,5	-12,333
949,9	-16,733
950,3	-17,133
950,8	16,067
951,2	18,867
951,6	-21,533
952	-13,133
952,5	12,067
952,9	-9,333
953,3	-8,533
953,7	-3,933
954,1	-3,533
954,6	7,667
955	-12,533
955,4	22,067
955,8	10,267
956,2	-30,733
956,7	-5,933
957,1	-8,333
957,5	15,467
957,9	20,267
958,3	-0,133
958,8	23,467
959,2	1,067
959,6	2,267
960	-0,333
960,5	0,667
960,9	5,467
961,3	1,067
961,7	-31,133
962,1	10,667
962,6	34,267
963	-6,133
963,4	6,667
963,8	-17,533
964,2	25,267
964,7	4,467
965,1	-5,533
965,5	28,867
965,9	-9,733
966,3	-0,333
966,8	3,067
967,2	-23,733
967,6	-4,533
968	12,067
968,4	-6,133
968,9	6,467
969,3	-5,933
969,7	11,467
970,1	7,867
970,5	2,467
971	-2,333
971,4	-4,333
971,8	7,467
972,2	23,667
972,6	11,667
973,1	-3,933
973,5	6,267
973,9	6,867
974,3	9,067
974,7	-6,133
975,2	2,067
975,6	-16,333
976	23,067
976,4	33,467
976,8	-15,333
977,3	6,067
977,7	18,867
978,1	2,267
978,5	28,267
978,9	9,867
979,4	-6,333
979,8	26,467
980,2	-1,133
980,6	17,667
981	-13,933
981,5	2,067
981,9	-5,133
982,3	-27,333
982,7	33,667
983,1	8,867
983,6	3,667
984	-16,733
984,4	3,267
984,8	7,667
985,2	-8,133
985,6	5,467
986,1	1,867
986,5	2,067
986,9	8,067
987,3	1,067
987,7	-0,333
988,2	-1,333
988,6	10,267
989	11,067
989,4	-18,333
989,8	28,467
990,3	1,667
990,7	37,667
991,1	17,467
991,5	-0,533
991,9	17,267
992,3	27,467
992,8	11,267
993,2	47,267
993,6	-17,933
994	-15,733
994,4	9,667
994,9	-20,533
995,3	-19,133
995,7	34,267
996,1	-22,733
996,5	-8,333
996,9	13,267
997,4	-36,333
997,8	-12,933
998,2	19,467
998,6	-13,333
999	25,467
999,5	-20,333
999,9	16,267
1000,3	18,467
1000,7	18,067
1001,1	-13,933
1001,5	-44,733
1002	4,067
1002,4	-6,933
1002,8	20,467
1003,2	-13,933
1003,6	-7,933
1004	-5,733
1004,5	-0,733
1004,9	4,667
1005,3	16,067
1005,7	-5,933
1006,1	19,067
1006,6	13,067
1007	5,067
1007,4	-0,933
1007,8	-5,333
1008,2	-0,133
1008,6	27,867
1009,1	1,467
1009,5	-1,533
1009,9	-2,533
1010,3	4,667
1010,7	-37,533
1011,1	-18,933
1011,6	-36,733
1012	4,467
1012,4	-8,933
1012,8	23,267
1013,2	2,667
1013,6	24,267
1014,1	-7,733
1014,5	17,067
1014,9	12,267
1015,3	-2,133
1015,7	-21,133
1016,1	-21,733
1016,6	-2,533
1017	-14,533
1017,4	-1,333
1017,8	-17,933
1018,2	1,667
1018,6	1,667
1019,1	-9,733
1019,5	-29,133
1019,9	-15,733
1020,3	-19,733
1020,7	-13,333
1021,1	22,067
1021,6	-2,333
1022	-10,133
1022,4	1,467
1022,8	-33,133
1023,2	14,867
1023,6	10,067
1024,1	-36,733
1024,5	1,067
1024,9	13,267
1025,3	15,467
1025,7	6,067
1026,1	-10,933
1026,6	-3,133
1027	6,267
1027,4	10,267
1027,8	42,267
1028,2	11,067
1028,6	-15,333
1029	-27,333
1029,5	33,067
1029,9	2,067
1030,3	12,067
1030,7	6,467
1031,1	12,867
1031,5	9,067
1032	-23,733
1032,4	34,067
1032,8	26,667
1033,2	-11,133
1033,6	27,667
1034	7,067
1034,4	10,667
1034,9	-11,733
1035,3	-9,533
1035,7	6,067
1036,1	-11,333
1036,5	-11,933
1036,9	14,467
1037,4	-5,133
1037,8	12,667
1038,2	-44,933
1038,6	8,067
1039	-33,733
1039,4	43,467
1039,8	-17,933
1040,3	2,667
1040,7	-8,533
1041,1	6,267
1041,5	28,067
1041,9	-20,133
1042,3	18,067
1042,7	-58,733
1043,2	-28,733
1043,6	23,867
1044	-35,533
1044,4	13,267
1044,8	3,867
1045,2	-19,333
1045,6	-14,933
1046,1	-3,133
1046,5	1,667
1046,9	21,067
1047,3	-21,333
1047,7	11,267
1048,1	-4,733
1048,5	-27,333
1049	-16,533
1049,4	-43,733
1049,8	3,067
1050,2	9,467
1050,6	6,067
1051	-7,533
1051,4	13,667
1051,9	-29,333
1052,3	-2,733
1052,7	3,867
1053,1	-18,933
1053,5	39,867
1053,9	-10,333
1054,3	-7,533
1054,8	-5,533
1055,2	12,267
1055,6	38,467
1056	18,067
1056,4	23,467
1056,8	12,867
1057,2	-18,533
1057,6	-12,933
1058,1	2,067
1058,5	-11,133
1058,9	0,067
1059,3	-22,333
1059,7	7,067
1060,1	-4,333
1060,5	9,467
1061	21,867
1061,4	14,267
1061,8	15,867
1062,2	-36,733
1062,6	-25,133
1063	26,867
1063,4	-30,533
1063,8	-11,133
1064,3	-31,533
1064,7	21,267
1065,1	-12,733
1065,5	41,067
1065,9	2,467
1066,3	-11,333
1066,7	-0,133
1067,1	-16,133
1067,6	-4,933
1068	13,267
1068,4	5,467
1068,8	22,267
1069,2	10,467
1069,6	-6,533
1070	-12,933
1070,4	6,067
1070,9	27,067
1071,3	-7,133
1071,7	-1,333
1072,1	0,467
1072,5	-9,733
1072,9	14,267
1073,3	1,067
1073,7	16,067
1074,2	-3,533
1074,6	8,067
1075	-2,133
1075,4	-20,733
1075,8	-22,333
1076,2	-14,533
1076,6	25,067
1077	1,067
1077,5	17,467
1077,9	-7,133
1078,3	-11,733
1078,7	-9,733
1079,1	15,467
1079,5	9,067
1079,9	-12,333
1080,3	-12,533
1080,7	-6,533
1081,2	11,067
1081,6	26,467
1082	30,467
1082,4	2,067
1082,8	-11,133
1083,2	-3,933
1083,6	-7,133
1084	-14,933
1084,5	3,867
1084,9	9,667
1085,3	10,267
1085,7	-20,333
1086,1	-19,133
1086,5	6,067
1086,9	-27,933
1087,3	-0,933
1087,7	-21,333
1088,2	-8,333
1088,6	12,467
1089	-7,533
1089,4	5,867
1089,8	22,867
1090,2	-9,333
1090,6	-19,133
1091	5,667
1091,4	-18,733
1091,9	-4,733
1092,3	15,867
1092,7	3,267
1093,1	-12,133
1093,5	-4,933
1093,9	3,867
1094,3	7,067
1094,7	30,867
1095,1	-4,733
1095,5	-16,133
1096	-25,533
1096,4	0,267
1096,8	26,467
1097,2	-0,933
1097,6	13,867
1098	-8,933
1098,4	-9,933
1098,8	22,467
1099,2	-15,933
1099,6	-4,733
1100,1	-0,133
1100,5	15,867
1100,9	19,267
1101,3	27,667
1101,7	6,067
1102,1	2,267
1102,5	-0,733
1102,9	0,267
1103,3	0,267
1103,7	7,267
1104,2	-8,133
1104,6	22,467
1105	-15,133
1105,4	-3,333
1105,8	20,267
1106,2	13,267
1106,6	-8,933
1107	-1,533
1107,4	-0,933
1107,8	1,467
1108,3	-1,333
