Data from Subt2_00012.txt Node
Date: Wed Aug 02 19:03:53 MSK 2023
User: vat
Spectrometer: MAYP114033
Trigger mode: 0
Integration Time (sec): 7,000000E-1
Scans to average: 5
Electric dark correction enabled: true
Nonlinearity correction enabled: false
Boxcar width: 0
XAxis mode: Wavelengths
Number of Pixels in Spectrum: 2068
>>>>>Begin Spectral Data<<<<<
199,4	-0,867
199,9	-2,867
200,4	-0,067
200,8	2,733
201,3	3,133
201,8	-11,267
202,2	7,733
202,7	-10,867
203,2	26,933
203,6	-3,867
204,1	4,533
204,6	-9,067
205	18,733
205,5	19,133
206	0,933
206,4	13,733
206,9	1,533
207,4	18,133
207,8	0,933
208,3	16,533
208,8	-16,267
209,2	-6,267
209,7	1,733
210,2	23,133
210,6	21,933
211,1	3,933
211,5	8,333
212	18,733
212,5	21,933
212,9	25,733
213,4	-7,267
213,9	17,133
214,3	-9,667
214,8	-5,267
215,3	0,933
215,7	19,133
216,2	16,333
216,7	-29,067
217,1	-16,467
217,6	-11,267
218,1	22,933
218,5	20,533
219	32,133
219,5	12,333
219,9	-7,067
220,4	3,733
220,9	1,133
221,3	2,733
221,8	10,533
222,3	-10,267
222,7	23,333
223,2	-5,067
223,6	8,533
224,1	-6,867
224,6	-1,267
225	-0,267
225,5	0,133
226	30,733
226,4	6,733
226,9	6,933
227,4	-18,267
227,8	23,133
228,3	22,333
228,8	13,933
229,2	10,733
229,7	14,333
230,2	33,733
230,6	31,733
231,1	13,733
231,5	12,333
232	-2,067
232,5	46,533
232,9	-17,867
233,4	-2,467
233,9	4,733
234,3	-7,667
234,8	18,733
235,3	-0,467
235,7	0,333
236,2	9,533
236,7	5,533
237,1	22,533
237,6	-5,267
238,1	25,533
238,5	4,733
239	3,333
239,4	-12,667
239,9	5,733
240,4	-3,467
240,8	-14,267
241,3	-5,867
241,8	9,333
242,2	13,733
242,7	-16,667
243,2	-12,867
243,6	6,333
244,1	18,733
244,6	4,133
245	22,133
245,5	22,333
245,9	1,133
246,4	-29,067
246,9	13,133
247,3	-8,467
247,8	8,333
248,3	12,533
248,7	-19,467
249,2	-13,667
249,7	8,733
250,1	27,133
250,6	-1,267
251	20,533
251,5	19,733
252	14,533
252,4	33,333
252,9	27,733
253,4	-9,267
253,8	9,533
254,3	13,133
254,8	-0,067
255,2	-16,467
255,7	6,333
256,1	9,333
256,6	8,333
257,1	-9,467
257,5	3,933
258	31,533
258,5	-11,467
258,9	19,333
259,4	13,533
259,9	38,533
260,3	-32,667
260,8	-1,667
261,2	-2,467
261,7	4,533
262,2	20,533
262,6	25,333
263,1	25,133
263,6	22,133
264	-15,467
264,5	-11,867
264,9	5,133
265,4	16,933
265,9	-27,467
266,3	-8,667
266,8	8,133
267,3	-8,867
267,7	16,133
268,2	3,333
268,7	9,533
269,1	9,533
269,6	25,133
270	-5,067
270,5	-44,667
271	44,733
271,4	-7,067
271,9	3,133
272,4	3,733
272,8	20,333
273,3	-4,267
273,7	29,533
274,2	-9,667
274,7	60,133
275,1	-8,067
275,6	-7,067
276,1	29,733
276,5	7,533
277	-2,267
277,4	0,933
277,9	-44,867
278,4	-22,667
278,8	27,333
279,3	-5,467
279,8	17,733
280,2	7,933
280,7	23,933
281,1	13,733
281,6	9,733
282,1	10,533
282,5	13,533
283	37,133
283,4	7,933
283,9	9,333
284,4	-16,067
284,8	7,133
285,3	-4,467
285,8	10,133
286,2	3,333
286,7	14,333
287,1	-29,067
287,6	3,533
288,1	-28,267
288,5	12,533
289	0,333
289,5	8,733
289,9	-0,467
290,4	1,133
290,8	6,133
291,3	22,533
291,8	14,733
292,2	18,533
292,7	7,733
293,1	-2,067
293,6	6,133
294,1	-5,467
294,5	-2,867
295	15,133
295,5	-4,667
295,9	-4,467
296,4	38,133
296,8	8,133
297,3	-9,067
297,8	21,533
298,2	13,133
298,7	13,933
299,1	3,733
299,6	5,133
300,1	4,533
300,5	7,533
301	-1,867
301,5	4,733
301,9	-2,267
302,4	17,533
302,8	-3,467
303,3	-24,667
303,8	-0,867
304,2	3,733
304,7	14,733
305,1	-20,067
305,6	11,733
306,1	-3,667
306,5	48,733
307	4,533
307,4	-8,467
307,9	35,533
308,4	23,533
308,8	-9,267
309,3	-5,667
309,8	10,733
310,2	17,133
310,7	9,533
311,1	-14,467
311,6	-16,067
312,1	5,933
312,5	-24,067
313	-46,267
313,4	43,133
313,9	-9,667
314,4	1,133
314,8	20,333
315,3	23,133
315,7	21,133
316,2	32,933
316,7	28,133
317,1	36,333
317,6	-3,267
318	-20,067
318,5	23,933
319	31,333
319,4	-12,067
319,9	28,533
320,3	3,933
320,8	-17,267
321,3	-3,467
321,7	22,733
322,2	29,933
322,6	2,533
323,1	8,533
323,6	18,133
324	11,533
324,5	14,333
324,9	2,733
325,4	28,533
325,9	-0,067
326,3	-8,667
326,8	2,933
327,2	13,333
327,7	-20,267
328,2	40,933
328,6	7,733
329,1	29,933
329,5	0,933
330	0,933
330,5	15,133
330,9	7,733
331,4	-6,667
331,8	-19,067
332,3	-12,267
332,8	40,333
333,2	-20,467
333,7	11,933
334,1	25,333
334,6	8,933
335,1	-3,467
335,5	15,733
336	-10,067
336,4	31,133
336,9	17,933
337,4	-17,467
337,8	27,933
338,3	5,533
338,7	22,133
339,2	11,333
339,7	30,133
340,1	25,333
340,6	7,133
341	-11,067
341,5	7,533
342	18,133
342,4	17,133
342,9	5,933
343,3	35,733
343,8	-10,667
344,2	32,333
344,7	-3,667
345,2	17,933
345,6	6,733
346,1	0,333
346,5	18,933
347	-16,267
347,5	27,733
347,9	13,733
348,4	11,733
348,8	18,533
349,3	12,533
349,8	5,133
350,2	32,333
350,7	51,733
351,1	91,333
351,6	45,133
352	58,933
352,5	77,133
353	66,333
353,4	108,533
353,9	129,733
354,3	134,733
354,8	176,333
355,3	242,733
355,7	289,533
356,2	326,333
356,6	361,533
357,1	469,733
357,5	514,133
358	640,733
358,5	729,533
358,9	842,133
359,4	1012,133
359,8	1163,533
360,3	1352,733
360,8	1503,733
361,2	1747,533
361,7	1994,733
362,1	2217,133
362,6	2545,533
363	2845,933
363,5	3185,333
364	3581,133
364,4	3930,733
364,9	4292,133
365,3	4658,933
365,8	4952,133
366,3	5324,333
366,7	5644,133
367,2	5897,533
367,6	6089,133
368,1	6249,733
368,5	6374,133
369	6401,933
369,5	6423,733
369,9	6404,933
370,4	6226,133
370,8	6110,133
371,3	5922,333
371,7	5698,333
372,2	5451,933
372,7	5148,133
373,1	4878,733
373,6	4575,333
374	4287,733
374,5	3982,533
374,9	3647,933
375,4	3436,133
375,9	3136,933
376,3	2923,933
376,8	2637,933
377,2	2400,733
377,7	2211,733
378,2	2035,333
378,6	1851,733
379,1	1672,533
379,5	1532,333
380	1426,733
380,4	1290,733
380,9	1164,533
381,4	1096,533
381,8	997,133
382,3	913,333
382,7	812,933
383,2	784,533
383,6	699,933
384,1	651,533
384,6	630,533
385	537,333
385,5	521,733
385,9	493,933
386,4	466,933
386,8	391,333
387,3	385,333
387,7	337,933
388,2	334,933
388,7	311,133
389,1	285,533
389,6	257,533
390	249,733
390,5	229,333
390,9	194,733
391,4	198,933
391,9	166,933
392,3	165,133
392,8	133,333
393,2	141,333
393,7	135,133
394,1	163,533
394,6	117,733
395,1	114,933
395,5	109,533
396	99,133
396,4	91,333
396,9	95,333
397,3	81,933
397,8	85,333
398,2	78,133
398,7	74,533
399,2	88,933
399,6	77,533
400,1	50,133
400,5	59,733
401	30,333
401,4	65,333
401,9	55,133
402,4	12,333
402,8	44,533
403,3	26,733
403,7	36,133
404,2	27,333
404,6	54,533
405,1	15,933
405,5	96,733
406	22,133
406,5	46,133
406,9	37,333
407,4	37,533
407,8	14,533
408,3	39,333
408,7	17,933
409,2	49,733
409,6	45,333
410,1	26,533
410,6	-9,267
411	13,733
411,5	31,733
411,9	-2,067
412,4	40,133
412,8	42,933
413,3	33,733
413,7	36,933
414,2	9,533
414,7	57,933
415,1	32,133
415,6	17,733
416	36,733
416,5	47,533
416,9	52,733
417,4	70,133
417,8	60,333
418,3	55,333
418,8	42,533
419,2	49,333
419,7	84,933
420,1	18,933
420,6	41,533
421	51,733
421,5	42,133
421,9	64,133
422,4	27,133
422,8	59,333
423,3	26,133
423,8	38,733
424,2	71,333
424,7	42,533
425,1	12,933
425,6	21,133
426	52,733
426,5	31,933
426,9	21,933
427,4	24,733
427,9	59,333
428,3	34,933
428,8	48,933
429,2	27,533
429,7	69,333
430,1	40,333
430,6	2,933
431	55,333
431,5	47,933
431,9	59,133
432,4	12,733
432,8	31,733
433,3	32,533
433,8	34,933
434,2	35,333
434,7	28,533
435,1	-3,867
435,6	18,733
436	12,733
436,5	28,333
436,9	30,133
437,4	46,733
437,8	4,333
438,3	24,933
438,8	35,933
439,2	-4,867
439,7	3,333
440,1	23,733
440,6	29,933
441	14,333
441,5	7,533
441,9	13,333
442,4	-1,267
442,8	18,733
443,3	11,733
443,7	23,333
444,2	6,533
444,7	-2,267
445,1	28,333
445,6	18,733
446	26,533
446,5	43,733
446,9	14,333
447,4	19,733
447,8	24,133
448,3	22,533
448,7	15,333
449,2	22,933
449,6	12,733
450,1	41,933
450,6	-3,067
451	2,933
451,5	11,733
451,9	8,533
452,4	-11,667
452,8	17,333
453,3	26,333
453,7	-23,667
454,2	40,733
454,6	18,933
455,1	8,133
455,5	19,533
456	18,933
456,4	-0,067
456,9	3,533
457,3	24,933
457,8	4,933
458,3	45,133
458,7	16,533
459,2	-13,467
459,6	8,133
460,1	-10,467
460,5	6,933
461	24,133
461,4	22,733
461,9	8,533
462,3	12,333
462,8	56,533
463,2	2,333
463,7	32,133
464,1	14,533
464,6	34,933
465	19,133
465,5	34,133
466	7,533
466,4	49,533
466,9	57,733
467,3	7,733
467,8	43,733
468,2	16,133
468,7	-1,267
469,1	12,933
469,6	7,733
470	-20,067
470,5	9,933
470,9	13,733
471,4	-1,667
471,8	16,333
472,3	8,733
472,7	-18,667
473,2	20,333
473,6	13,733
474,1	7,533
474,5	24,133
475	37,733
475,4	39,333
475,9	30,733
476,4	-0,667
476,8	36,133
477,3	4,133
477,7	22,733
478,2	10,133
478,6	7,533
479,1	27,933
479,5	16,533
480	19,333
480,4	-3,267
480,9	4,933
481,3	-11,067
481,8	44,733
482,2	16,333
482,7	5,533
483,1	27,133
483,6	33,933
484	16,933
484,5	11,933
484,9	-3,867
485,4	-27,667
485,8	18,133
486,3	38,933
486,7	-11,467
487,2	5,333
487,6	1,133
488,1	-2,067
488,5	37,733
489	7,333
489,4	14,333
489,9	42,533
490,4	-18,267
490,8	2,733
491,3	44,933
491,7	36,933
492,2	33,933
492,6	12,933
493,1	-1,067
493,5	-2,267
494	12,533
494,4	23,933
494,9	17,733
495,3	17,933
495,8	19,933
496,2	-5,867
496,7	25,733
497,1	-20,067
497,6	11,133
498	15,933
498,5	11,933
498,9	32,933
499,4	3,133
499,8	18,133
500,3	1,333
500,7	7,933
501,2	11,133
501,6	-1,067
502,1	15,733
502,5	10,133
503	23,333
503,4	18,733
503,9	2,333
504,3	-21,267
504,8	27,333
505,2	-4,467
505,7	18,133
506,1	25,733
506,6	3,533
507	-6,667
507,5	27,933
507,9	13,933
508,4	2,333
508,8	39,933
509,3	30,133
509,7	29,133
510,2	15,133
510,6	17,333
511,1	5,933
511,5	48,733
512	8,133
512,4	15,133
512,9	40,133
513,3	9,733
513,8	15,333
514,2	6,933
514,7	25,733
515,1	24,133
515,6	33,533
516	38,933
516,5	26,733
516,9	27,533
517,4	4,133
517,8	-14,467
518,3	36,333
518,7	44,333
519,2	8,533
519,6	12,933
520,1	26,933
520,5	14,933
521	5,533
521,4	2,333
521,9	-4,667
522,3	17,333
522,8	28,333
523,2	16,733
523,7	11,933
524,1	8,133
524,6	14,333
525	26,133
525,5	25,733
525,9	-6,467
526,4	12,533
526,8	8,933
527,3	9,133
527,7	16,133
528,2	19,133
528,6	-3,467
529,1	26,533
529,5	35,333
530	7,333
530,4	7,733
530,9	18,533
531,3	22,933
531,8	34,733
532,2	-4,867
532,6	16,533
533,1	17,133
533,5	-3,867
534	9,933
534,4	30,733
534,9	38,733
535,3	34,133
535,8	-0,067
536,2	17,133
536,7	-15,067
537,1	32,733
537,6	19,533
538	29,133
538,5	6,133
538,9	15,733
539,4	8,333
539,8	1,333
540,3	18,533
540,7	3,333
541,2	27,333
541,6	11,733
542,1	3,333
542,5	18,333
543	-11,467
543,4	21,933
543,9	26,133
544,3	26,733
544,8	-0,867
545,2	20,533
545,7	22,333
546,1	5,333
546,5	28,133
547	11,733
547,4	26,733
547,9	3,733
548,3	45,133
548,8	21,133
549,2	12,333
549,7	3,933
550,1	-0,867
550,6	32,733
551	23,133
551,5	26,933
551,9	11,533
552,4	1,333
552,8	16,733
553,3	-34,267
553,7	22,733
554,2	41,733
554,6	-15,867
555,1	-11,867
555,5	11,733
555,9	8,733
556,4	19,333
556,8	36,933
557,3	24,133
557,7	23,133
558,2	14,133
558,6	17,733
559,1	-19,067
559,5	15,733
560	7,533
560,4	19,733
560,9	9,933
561,3	31,933
561,8	26,733
562,2	-8,067
562,7	-13,667
563,1	-12,267
563,6	0,933
564	38,333
564,4	11,933
564,9	24,333
565,3	16,133
565,8	18,333
566,2	32,933
566,7	17,333
567,1	9,333
567,6	0,933
568	-10,267
568,5	-9,667
568,9	8,133
569,4	25,933
569,8	2,733
570,3	-17,267
570,7	32,533
571,1	5,333
571,6	19,333
572	21,733
572,5	19,333
572,9	-18,067
573,4	11,733
573,8	3,533
574,3	15,333
574,7	8,133
575,2	20,133
575,6	29,733
576,1	21,533
576,5	9,933
576,9	41,733
577,4	23,333
577,8	18,733
578,3	-30,267
578,7	17,733
579,2	71,933
579,6	6,933
580,1	36,133
580,5	5,733
581	15,933
581,4	2,533
581,9	48,733
582,3	12,933
582,7	10,533
583,2	8,733
583,6	15,933
584,1	13,933
584,5	29,533
585	15,933
585,4	8,733
585,9	16,733
586,3	8,333
586,8	32,733
587,2	27,533
587,6	0,133
588,1	-26,067
588,5	25,733
589	-2,467
589,4	-30,067
589,9	22,333
590,3	6,333
590,8	4,133
591,2	38,533
591,7	-10,467
592,1	19,333
592,5	21,533
593	15,133
593,4	17,933
593,9	15,533
594,3	27,933
594,8	-15,667
595,2	10,733
595,7	8,533
596,1	7,733
596,6	10,333
597	-2,067
597,4	21,133
597,9	4,333
598,3	16,533
598,8	32,933
599,2	9,133
599,7	4,133
600,1	7,533
600,6	18,733
601	17,133
601,4	15,333
601,9	32,333
602,3	18,933
602,8	5,133
603,2	1,133
603,7	6,133
604,1	29,533
604,6	6,333
605	6,933
605,4	8,733
605,9	12,533
606,3	-1,867
606,8	-16,667
607,2	9,333
607,7	-3,467
608,1	-3,267
608,6	-8,467
609	8,333
609,4	14,733
609,9	42,933
610,3	-1,667
610,8	22,933
611,2	9,133
611,7	32,533
612,1	10,133
612,6	2,933
613	9,733
613,4	25,733
613,9	20,933
614,3	-1,867
614,8	22,333
615,2	10,533
615,7	-13,667
616,1	-5,867
616,6	27,133
617	-1,267
617,4	12,133
617,9	14,333
618,3	22,733
618,8	31,933
619,2	-2,467
619,7	8,133
620,1	44,933
620,5	37,133
621	31,933
621,4	21,533
621,9	16,933
622,3	23,333
622,8	49,533
623,2	10,533
623,6	7,933
624,1	-6,867
624,5	34,133
625	-10,867
625,4	14,933
625,9	4,133
626,3	-23,667
626,8	33,133
627,2	8,133
627,6	0,933
628,1	7,333
628,5	-16,467
629	19,333
629,4	8,733
629,9	24,133
630,3	-12,267
630,7	-5,867
631,2	39,133
631,6	1,133
632,1	6,733
632,5	11,133
633	20,733
633,4	20,933
633,8	26,333
634,3	6,733
634,7	10,733
635,2	15,533
635,6	12,133
636,1	2,733
636,5	7,733
636,9	-25,667
637,4	22,733
637,8	38,333
638,3	-9,067
638,7	-4,467
639,2	1,333
639,6	17,333
640	-8,667
640,5	-12,667
640,9	19,733
641,4	21,533
641,8	-16,867
642,2	30,333
642,7	-10,467
643,1	9,133
643,6	50,733
644	2,333
644,5	59,333
644,9	10,933
645,3	27,733
645,8	-29,667
646,2	28,733
646,7	43,533
647,1	15,733
647,6	30,133
648	27,133
648,4	0,133
648,9	19,133
649,3	32,733
649,8	21,933
650,2	18,733
650,6	-1,867
651,1	16,533
651,5	-24,467
652	-39,867
652,4	18,533
652,9	10,133
653,3	19,933
653,7	3,133
654,2	16,933
654,6	28,733
655,1	11,533
655,5	-4,267
655,9	8,933
656,4	23,733
656,8	15,733
657,3	19,533
657,7	31,733
658,2	3,533
658,6	14,933
659	38,133
659,5	20,133
659,9	4,333
660,4	5,133
660,8	10,933
661,2	-5,667
661,7	13,333
662,1	16,133
662,6	11,333
663	36,933
663,4	12,933
663,9	23,933
664,3	3,533
664,8	23,333
665,2	-16,267
665,6	19,933
666,1	-1,867
666,5	0,533
667	-8,267
667,4	20,333
667,9	-14,267
668,3	5,133
668,7	-15,267
669,2	16,333
669,6	39,733
670,1	-17,067
670,5	13,933
670,9	-0,067
671,4	4,733
671,8	17,733
672,3	16,333
672,7	7,533
673,1	40,333
673,6	16,533
674	18,133
674,5	17,333
674,9	-4,067
675,3	0,533
675,8	27,933
676,2	10,733
676,7	7,733
677,1	20,133
677,5	-2,467
678	-9,467
678,4	16,333
678,9	13,333
679,3	25,933
679,7	5,133
680,2	9,333
680,6	30,133
681,1	15,733
681,5	28,533
681,9	1,733
682,4	-14,667
682,8	3,333
683,3	2,933
683,7	-4,667
684,1	3,533
684,6	22,933
685	-1,467
685,5	3,333
685,9	11,333
686,3	22,533
686,8	-20,467
687,2	8,133
687,7	-1,467
688,1	-11,667
688,5	14,933
689	-43,667
689,4	-14,067
689,9	13,533
690,3	-5,267
690,7	35,533
691,2	3,933
691,6	23,733
692	17,533
692,5	23,333
692,9	9,733
693,4	1,133
693,8	-0,667
694,2	3,333
694,7	-7,267
695,1	-4,867
695,6	-2,067
696	1,933
696,4	-10,267
696,9	12,733
697,3	24,733
697,8	11,533
698,2	-5,867
698,6	14,133
699,1	9,933
699,5	-17,867
699,9	13,733
700,4	28,333
700,8	33,733
701,3	-6,867
701,7	-0,667
702,1	40,333
702,6	13,533
703	-26,667
703,5	-16,267
703,9	10,333
704,3	23,533
704,8	-7,667
705,2	20,533
705,6	-1,467
706,1	-8,067
706,5	11,533
707	-3,267
707,4	6,933
707,8	17,133
708,3	17,333
708,7	39,733
709,2	2,933
709,6	1,933
710	9,933
710,5	5,533
710,9	-21,867
711,3	-32,067
711,8	-6,467
712,2	2,733
712,7	-11,467
713,1	40,533
713,5	33,133
714	-4,667
714,4	-8,467
714,8	-2,867
715,3	10,333
715,7	2,133
716,2	22,733
716,6	-2,867
717	7,133
717,5	-9,667
717,9	4,133
718,3	24,533
718,8	9,533
719,2	-7,067
719,7	-1,467
720,1	9,133
720,5	0,733
721	39,733
721,4	-0,867
721,8	-28,667
722,3	-5,667
722,7	-32,067
723,2	8,333
723,6	-13,867
724	4,333
724,5	9,733
724,9	39,533
725,3	-1,267
725,8	33,733
726,2	-21,067
726,7	7,533
727,1	13,333
727,5	27,533
728	6,933
728,4	-22,467
728,8	32,933
729,3	11,533
729,7	-9,867
730,1	12,733
730,6	-8,667
731	-22,467
731,5	19,133
731,9	9,933
732,3	2,333
732,8	-20,667
733,2	-11,867
733,6	4,133
734,1	6,933
734,5	21,333
734,9	-8,067
735,4	14,133
735,8	22,733
736,3	4,333
736,7	8,533
737,1	28,733
737,6	-1,267
738	-3,067
738,4	-0,267
738,9	4,333
739,3	12,333
739,7	26,533
740,2	1,733
740,6	17,933
741,1	-2,867
741,5	17,133
741,9	36,333
742,4	7,133
742,8	6,933
743,2	-4,267
743,7	0,133
744,1	-6,467
744,5	18,933
745	33,733
745,4	-0,067
745,8	0,533
746,3	4,133
746,7	3,133
747,2	4,733
747,6	5,533
748	-24,067
748,5	32,933
748,9	18,733
749,3	-5,267
749,8	-2,067
750,2	-17,467
750,6	-12,867
751,1	32,733
751,5	26,333
751,9	-9,667
752,4	31,733
752,8	-3,467
753,3	19,133
753,7	31,333
754,1	-26,067
754,6	-20,667
755	-4,267
755,4	13,533
755,9	-11,667
756,3	-5,067
756,7	19,333
757,2	15,333
757,6	7,733
758	7,133
758,5	23,333
758,9	54,733
759,3	-13,867
759,8	8,733
760,2	-27,667
760,6	25,333
761,1	-9,067
761,5	-2,267
761,9	27,133
762,4	-3,067
762,8	1,933
763,3	-8,467
763,7	-12,667
764,1	11,733
764,6	-9,867
765	11,133
765,4	22,133
765,9	4,133
766,3	9,933
766,7	2,733
767,2	-2,467
767,6	-30,267
768	12,933
768,5	5,533
768,9	-7,267
769,3	3,733
769,8	1,733
770,2	13,933
770,6	-7,067
771,1	8,533
771,5	2,333
771,9	-8,667
772,4	-7,067
772,8	-17,867
773,2	20,933
773,7	8,333
774,1	17,933
774,5	6,933
775	-2,867
775,4	12,533
775,8	18,733
776,3	12,933
776,7	-3,067
777,1	22,533
777,6	9,933
778	14,333
778,4	19,533
778,9	10,333
779,3	-6,067
779,7	38,333
780,2	15,133
780,6	23,933
781	7,933
781,5	20,133
781,9	9,333
782,3	11,533
782,8	-10,067
783,2	11,533
783,6	12,333
784,1	29,933
784,5	32,333
784,9	-5,667
785,4	5,733
785,8	5,933
786,2	15,133
786,7	27,533
787,1	-4,667
787,5	-8,867
788	-22,067
788,4	13,333
788,8	-16,867
789,3	25,933
789,7	16,333
790,1	-0,267
790,6	8,933
791	0,733
791,4	7,733
791,9	11,733
792,3	16,533
792,7	-8,267
793,2	4,933
793,6	11,533
794	10,933
794,5	21,133
794,9	-9,467
795,3	4,733
795,8	-13,667
796,2	2,333
796,6	23,333
797,1	17,333
797,5	26,533
797,9	19,733
798,4	29,333
798,8	28,333
799,2	-6,267
799,7	3,333
800,1	-25,467
800,5	18,333
801	6,533
801,4	3,533
801,8	16,533
802,2	13,133
802,7	2,333
803,1	-7,867
803,5	33,133
804	1,933
804,4	-6,467
804,8	3,533
805,3	22,933
805,7	4,333
806,1	17,933
806,6	-24,467
807	-10,467
807,4	13,533
807,9	28,133
808,3	10,933
808,7	-10,667
809,2	2,933
809,6	16,533
810	2,133
810,4	33,733
810,9	16,533
811,3	44,333
811,7	22,533
812,2	6,333
812,6	2,733
813	-1,667
813,5	16,733
813,9	21,133
814,3	2,733
814,8	11,933
815,2	28,533
815,6	-12,067
816,1	28,533
816,5	9,333
816,9	18,133
817,3	2,733
817,8	-2,867
818,2	-5,267
818,6	17,133
819,1	11,533
819,5	-20,667
819,9	-23,667
820,4	10,733
820,8	-14,067
821,2	9,333
821,7	43,733
822,1	-14,267
822,5	12,733
822,9	-0,067
823,4	-7,467
823,8	8,333
824,2	3,933
824,7	16,533
825,1	14,533
825,5	-22,067
826	20,933
826,4	-0,867
826,8	22,533
827,3	-7,667
827,7	3,933
828,1	17,933
828,5	23,533
829	30,133
829,4	12,133
829,8	15,933
830,3	2,733
830,7	1,933
831,1	1,933
831,6	-28,467
832	22,933
832,4	26,933
832,8	-11,667
833,3	37,733
833,7	4,933
834,1	-12,467
834,6	10,933
835	11,933
835,4	0,733
835,8	17,533
836,3	24,133
836,7	1,333
837,1	-11,267
837,6	9,133
838	7,933
838,4	21,533
838,9	22,733
839,3	-0,667
839,7	-5,867
840,1	25,133
840,6	10,733
841	-7,267
841,4	-5,467
841,9	3,733
842,3	12,933
842,7	15,733
843,1	-4,867
843,6	14,933
844	38,333
844,4	-9,267
844,9	-1,667
845,3	-3,267
845,7	-11,467
846,2	26,333
846,6	8,933
847	-3,867
847,4	28,733
847,9	19,133
848,3	26,733
848,7	11,333
849,2	3,133
849,6	-2,867
850	20,733
850,4	30,533
850,9	27,733
851,3	16,933
851,7	0,533
852,2	13,333
852,6	38,333
853	-3,867
853,4	6,133
853,9	-3,267
854,3	10,733
854,7	11,933
855,2	16,533
855,6	-1,067
856	12,333
856,4	2,933
856,9	0,133
857,3	34,733
857,7	-35,467
858,2	10,733
858,6	8,333
859	-1,067
859,4	1,933
859,9	23,733
860,3	15,333
860,7	-3,267
861,1	3,533
861,6	-11,067
862	26,933
862,4	-14,267
862,9	30,333
863,3	-5,267
863,7	-8,267
864,1	18,933
864,6	20,533
865	13,733
865,4	22,333
865,9	7,333
866,3	0,333
866,7	16,733
867,1	6,333
867,6	11,933
868	20,933
868,4	-16,867
868,8	-1,667
869,3	-12,867
869,7	10,933
870,1	-0,467
870,6	-0,067
871	6,933
871,4	4,533
871,8	9,933
872,3	340,333
872,7	-4,867
873,1	19,533
873,5	-4,667
874	10,733
874,4	-13,267
874,8	7,933
875,3	9,933
875,7	8,333
876,1	23,733
876,5	30,333
877	16,333
877,4	-3,067
877,8	-6,067
878,2	-0,267
878,7	1,533
879,1	28,333
879,5	20,133
879,9	17,733
880,4	-5,667
880,8	9,333
881,2	24,533
881,7	-4,067
882,1	11,533
882,5	21,733
882,9	28,933
883,4	2,533
883,8	-9,467
884,2	-0,467
884,6	0,733
885,1	10,733
885,5	-24,867
885,9	-8,867
886,3	-22,467
886,8	-26,267
887,2	10,733
887,6	2,533
888	19,533
888,5	18,733
888,9	1,933
889,3	18,933
889,8	21,933
890,2	-5,867
890,6	7,333
891	-3,867
891,5	-6,867
891,9	-6,867
892,3	-4,067
892,7	11,733
893,2	9,133
893,6	7,333
894	7,533
894,4	6,933
894,9	-12,867
895,3	-17,267
895,7	5,733
896,1	-3,667
896,6	14,533
897	-9,467
897,4	6,533
897,8	1,733
898,3	24,933
898,7	-2,467
899,1	-2,267
899,5	10,533
900	19,333
900,4	12,733
900,8	24,333
901,2	-16,267
901,7	-6,667
902,1	28,733
902,5	4,933
902,9	-2,867
903,4	20,933
903,8	15,733
904,2	15,933
904,6	24,733
905,1	19,533
905,5	18,933
905,9	10,933
906,3	-6,267
906,8	-1,467
907,2	9,333
907,6	-19,867
908	-1,067
908,5	12,733
908,9	9,133
909,3	-12,467
909,7	16,733
910,2	58,533
910,6	10,133
911	-2,867
911,4	15,733
911,9	10,733
912,3	4,133
912,7	21,533
913,1	4,733
913,6	-30,467
914	28,933
914,4	40,333
914,8	13,933
915,3	31,733
915,7	28,333
916,1	5,133
916,5	11,133
916,9	8,133
917,4	10,933
917,8	24,533
918,2	5,733
918,6	38,133
919,1	-6,667
919,5	0,133
919,9	18,133
920,3	5,133
920,8	2,333
921,2	26,933
921,6	-40,067
922	-10,267
922,5	-7,267
922,9	-7,667
923,3	-18,267
923,7	11,133
924,2	-2,067
924,6	-7,467
925	21,733
925,4	5,533
925,8	14,733
926,3	14,533
926,7	-2,267
927,1	10,333
927,5	-2,867
928	30,733
928,4	-8,667
928,8	13,933
929,2	21,133
929,7	1,533
930,1	-8,467
930,5	16,533
930,9	-2,667
931,3	17,133
931,8	32,533
932,2	41,333
932,6	18,933
933	13,333
933,5	21,933
933,9	21,933
934,3	-14,667
934,7	-8,467
935,2	32,933
935,6	9,733
936	4,533
936,4	-0,267
936,8	-3,867
937,3	4,933
937,7	3,133
938,1	-15,067
938,5	-3,667
939	34,133
939,4	8,533
939,8	25,333
940,2	6,933
940,6	2,533
941,1	18,733
941,5	-17,067
941,9	-14,467
942,3	2,333
942,8	-2,867
943,2	-18,867
943,6	9,333
944	8,533
944,4	-39,467
944,9	6,533
945,3	13,933
945,7	-5,267
946,1	8,133
946,6	5,333
947	9,133
947,4	24,733
947,8	-33,867
948,2	17,133
948,7	0,333
949,1	23,333
949,5	-0,667
949,9	6,933
950,3	24,533
950,8	-15,067
951,2	4,933
951,6	7,533
952	12,733
952,5	21,533
952,9	-8,867
953,3	1,133
953,7	10,733
954,1	8,133
954,6	11,933
955	14,133
955,4	0,333
955,8	20,933
956,2	29,733
956,7	40,933
957,1	2,133
957,5	-12,667
957,9	22,733
958,3	-4,667
958,8	-9,667
959,2	-3,467
959,6	15,133
960	-11,067
960,5	-13,867
960,9	-1,467
961,3	14,933
961,7	24,533
962,1	0,133
962,6	14,733
963	-11,067
963,4	22,133
963,8	21,333
964,2	49,133
964,7	-9,267
965,1	-1,467
965,5	17,533
965,9	-21,667
966,3	-5,267
966,8	-15,067
967,2	-34,267
967,6	25,133
968	16,933
968,4	-12,267
968,9	4,333
969,3	12,733
969,7	10,733
970,1	15,733
970,5	-22,067
971	12,333
971,4	-1,067
971,8	-5,867
972,2	24,133
972,6	-10,267
973,1	-3,467
973,5	21,933
973,9	24,933
974,3	10,133
974,7	25,533
975,2	-20,867
975,6	-4,867
976	-3,467
976,4	11,333
976,8	8,533
977,3	17,333
977,7	2,533
978,1	24,333
978,5	26,733
978,9	-7,067
979,4	-2,267
979,8	14,533
980,2	32,133
980,6	-3,267
981	14,533
981,5	-21,867
981,9	14,333
982,3	20,933
982,7	16,933
983,1	28,333
983,6	3,933
984	6,933
984,4	9,733
984,8	0,333
985,2	23,133
985,6	19,933
986,1	3,333
986,5	24,333
986,9	11,733
987,3	26,333
987,7	-6,867
988,2	22,333
988,6	16,733
989	-14,267
989,4	-9,267
989,8	28,133
990,3	1,733
990,7	57,733
991,1	-9,467
991,5	6,933
991,9	31,533
992,3	-1,067
992,8	-3,867
993,2	26,933
993,6	-30,667
994	-2,067
994,4	16,933
994,9	-15,467
995,3	-2,267
995,7	0,533
996,1	13,933
996,5	7,733
996,9	3,333
997,4	-12,267
997,8	20,733
998,2	-11,067
998,6	7,733
999	0,133
999,5	0,533
999,9	2,333
1000,3	26,333
1000,7	-1,267
1001,1	36,133
1001,5	4,933
1002	39,333
1002,4	29,133
1002,8	-3,867
1003,2	27,333
1003,6	8,133
1004	0,133
1004,5	3,733
1004,9	-1,467
1005,3	-9,067
1005,7	-6,667
1006,1	11,933
1006,6	-5,667
1007	1,333
1007,4	38,533
1007,8	30,133
1008,2	4,933
1008,6	10,533
1009,1	14,933
1009,5	11,533
1009,9	10,733
1010,3	-7,067
1010,7	21,133
1011,1	11,933
1011,6	-13,667
1012	25,933
1012,4	10,933
1012,8	-8,467
1013,2	-15,667
1013,6	8,333
1014,1	5,333
1014,5	21,533
1014,9	-0,467
1015,3	28,933
1015,7	2,933
1016,1	1,133
1016,6	9,133
1017	13,533
1017,4	21,133
1017,8	-5,867
1018,2	13,733
1018,6	-17,267
1019,1	7,533
1019,5	25,533
1019,9	8,133
1020,3	10,133
1020,7	31,733
1021,1	8,733
1021,6	-17,867
1022	-10,867
1022,4	8,933
1022,8	42,133
1023,2	10,333
1023,6	14,733
1024,1	19,533
1024,5	-20,667
1024,9	38,533
1025,3	24,333
1025,7	8,733
1026,1	43,333
1026,6	-21,667
1027	32,733
1027,4	27,733
1027,8	-11,067
1028,2	7,333
1028,6	54,733
1029	25,533
1029,5	4,533
1029,9	24,533
1030,3	-0,267
1030,7	-14,667
1031,1	-46,667
1031,5	6,333
1032	16,533
1032,4	-4,067
1032,8	-27,067
1033,2	5,733
1033,6	-9,667
1034	7,933
1034,4	-2,467
1034,9	19,733
1035,3	18,733
1035,7	2,133
1036,1	-7,867
1036,5	16,333
1036,9	3,133
1037,4	-7,467
1037,8	-7,667
1038,2	30,733
1038,6	-10,267
1039	4,333
1039,4	22,933
1039,8	-27,067
1040,3	23,733
1040,7	18,333
1041,1	-3,467
1041,5	14,533
1041,9	40,733
1042,3	23,733
1042,7	18,533
1043,2	-35,467
1043,6	0,533
1044	-19,067
1044,4	7,533
1044,8	24,133
1045,2	-12,667
1045,6	17,533
1046,1	17,333
1046,5	-12,267
1046,9	11,333
1047,3	-0,667
1047,7	10,933
1048,1	-15,467
1048,5	-20,467
1049	-2,467
1049,4	-3,067
1049,8	12,333
1050,2	17,733
1050,6	3,133
1051	23,933
1051,4	-18,267
1051,9	-2,867
1052,3	34,533
1052,7	-22,067
1053,1	16,133
1053,5	12,733
1053,9	10,333
1054,3	-3,667
1054,8	6,333
1055,2	11,133
1055,6	14,133
1056	-17,467
1056,4	15,733
1056,8	-15,067
1057,2	-16,267
1057,6	4,333
1058,1	12,933
1058,5	-13,667
1058,9	-3,267
1059,3	-2,067
1059,7	-14,667
1060,1	-12,667
1060,5	-4,067
1061	20,933
1061,4	27,733
1061,8	70,533
1062,2	-0,067
1062,6	-7,067
1063	15,733
1063,4	35,733
1063,8	1,533
1064,3	8,533
1064,7	-2,267
1065,1	33,733
1065,5	15,933
1065,9	30,733
1066,3	18,733
1066,7	5,133
1067,1	25,733
1067,6	5,333
1068	-1,467
1068,4	-5,867
1068,8	9,733
1069,2	-3,267
1069,6	32,933
1070	-0,267
1070,4	-0,667
1070,9	-7,267
1071,3	10,733
1071,7	-16,267
1072,1	14,333
1072,5	39,933
1072,9	1,933
1073,3	-14,467
1073,7	13,133
1074,2	-12,867
1074,6	12,333
1075	27,333
1075,4	12,133
1075,8	28,533
1076,2	1,533
1076,6	24,333
1077	-4,667
1077,5	-4,667
1077,9	5,933
1078,3	3,333
1078,7	24,733
1079,1	0,733
1079,5	-0,467
1079,9	19,133
1080,3	-13,867
1080,7	23,133
1081,2	26,533
1081,6	5,933
1082	17,133
1082,4	12,333
1082,8	-22,467
1083,2	7,333
1083,6	-0,267
1084	3,133
1084,5	-20,267
1084,9	2,933
1085,3	10,333
1085,7	21,533
1086,1	-11,467
1086,5	13,933
1086,9	21,733
1087,3	16,733
1087,7	19,133
1088,2	-11,267
1088,6	-3,867
1089	3,733
1089,4	-11,067
1089,8	-7,067
1090,2	0,333
1090,6	-2,067
1091	-21,067
1091,4	5,133
1091,9	7,133
1092,3	27,133
1092,7	-7,067
1093,1	27,133
1093,5	-9,467
1093,9	4,933
1094,3	-8,467
1094,7	-4,267
1095,1	-10,867
1095,5	9,933
1096	3,133
1096,4	25,933
1096,8	-0,267
1097,2	-14,667
1097,6	9,933
1098	10,733
1098,4	-14,667
1098,8	-0,467
1099,2	-20,867
1099,6	1,133
1100,1	32,733
1100,5	27,133
1100,9	-0,667
1101,3	-0,867
1101,7	-0,267
1102,1	10,933
1102,5	5,133
1102,9	6,933
1103,3	2,733
1103,7	-4,067
1104,2	15,133
1104,6	12,533
1105	-3,867
1105,4	12,533
1105,8	-8,667
1106,2	22,933
1106,6	-0,067
1107	-0,067
1107,4	-1,067
1107,8	-2,467
1108,3	0,933
