Data from Subt2_00014.txt Node
Date: Wed Aug 02 19:06:48 MSK 2023
User: vat
Spectrometer: MAYP114033
Trigger mode: 0
Integration Time (sec): 7,000000E-1
Scans to average: 5
Electric dark correction enabled: true
Nonlinearity correction enabled: false
Boxcar width: 0
XAxis mode: Wavelengths
Number of Pixels in Spectrum: 2068
>>>>>Begin Spectral Data<<<<<
199,4	-2,533
199,9	-1,933
200,4	2,267
200,8	-0,533
201,3	10,267
201,8	-5,933
202,2	2,467
202,7	21,867
203,2	8,867
203,6	-26,133
204,1	-10,333
204,6	-4,333
205	8,667
205,5	-6,133
206	-2,133
206,4	10,867
206,9	13,867
207,4	24,067
207,8	21,467
208,3	11,667
208,8	-18,733
209,2	10,067
209,7	-11,733
210,2	-8,533
210,6	15,467
211,1	16,267
211,5	2,267
212	16,667
212,5	42,267
212,9	25,267
213,4	-0,933
213,9	-1,333
214,3	-11,333
214,8	9,467
215,3	3,667
215,7	25,667
216,2	19,467
216,7	-9,533
217,1	22,467
217,6	14,267
218,1	3,267
218,5	9,067
219	14,467
219,5	8,267
219,9	15,667
220,4	-7,933
220,9	-14,133
221,3	20,067
221,8	27,067
222,3	-10,933
222,7	28,867
223,2	3,867
223,6	3,467
224,1	17,267
224,6	-11,333
225	-6,933
225,5	10,267
226	22,067
226,4	12,667
226,9	1,867
227,4	-12,733
227,8	18,867
228,3	4,867
228,8	14,067
229,2	-9,333
229,7	9,467
230,2	35,867
230,6	54,067
231,1	21,667
231,5	4,067
232	17,467
232,5	39,067
232,9	-4,133
233,4	-12,133
233,9	-11,533
234,3	22,867
234,8	55,667
235,3	16,667
235,7	16,467
236,2	7,267
236,7	8,267
237,1	20,467
237,6	2,267
238,1	17,267
238,5	11,067
239	12,467
239,4	9,267
239,9	11,667
240,4	9,267
240,8	3,867
241,3	-10,333
241,8	25,867
242,2	4,067
242,7	5,667
243,2	13,667
243,6	0,267
244,1	30,867
244,6	9,667
245	4,467
245,5	-10,333
245,9	16,467
246,4	-3,533
246,9	1,867
247,3	32,467
247,8	10,067
248,3	21,267
248,7	0,667
249,2	18,867
249,7	-3,933
250,1	33,467
250,6	8,267
251	28,867
251,5	32,467
252	18,667
252,4	30,667
252,9	34,067
253,4	-14,533
253,8	41,467
254,3	-4,733
254,8	3,067
255,2	-34,533
255,7	8,467
256,1	2,467
256,6	12,667
257,1	0,867
257,5	27,067
258	21,267
258,5	19,267
258,9	19,267
259,4	7,467
259,9	15,067
260,3	-4,533
260,8	22,067
261,2	13,067
261,7	25,867
262,2	4,267
262,6	11,867
263,1	29,067
263,6	26,267
264	-7,933
264,5	-15,333
264,9	24,067
265,4	21,867
265,9	-12,733
266,3	0,067
266,8	30,867
267,3	-1,933
267,7	23,667
268,2	-3,133
268,7	41,867
269,1	12,267
269,6	0,667
270	7,867
270,5	4,067
271	58,667
271,4	10,667
271,9	9,867
272,4	13,267
272,8	12,867
273,3	25,667
273,7	8,667
274,2	27,067
274,7	60,067
275,1	19,267
275,6	-9,533
276,1	17,667
276,5	11,467
277	-0,533
277,4	23,067
277,9	-27,133
278,4	3,267
278,8	20,667
279,3	11,667
279,8	1,267
280,2	28,467
280,7	23,067
281,1	4,667
281,6	-23,933
282,1	24,467
282,5	-2,333
283	24,067
283,4	4,867
283,9	11,467
284,4	-6,933
284,8	21,667
285,3	11,067
285,8	-3,933
286,2	15,667
286,7	24,867
287,1	-21,933
287,6	4,867
288,1	-20,133
288,5	10,867
289	6,667
289,5	22,067
289,9	-0,133
290,4	22,667
290,8	-16,733
291,3	32,067
291,8	-18,333
292,2	-2,933
292,7	3,467
293,1	21,067
293,6	3,667
294,1	18,267
294,5	2,667
295	27,467
295,5	28,067
295,9	31,267
296,4	31,667
296,8	8,467
297,3	-13,533
297,8	26,667
298,2	23,467
298,7	2,267
299,1	-2,333
299,6	19,867
300,1	-12,533
300,5	17,267
301	-14,533
301,5	8,867
301,9	-7,333
302,4	9,667
302,8	3,467
303,3	-21,933
303,8	38,867
304,2	5,667
304,7	12,667
305,1	-6,533
305,6	8,267
306,1	8,467
306,5	42,867
307	10,267
307,4	-3,933
307,9	15,467
308,4	-2,933
308,8	22,667
309,3	7,267
309,8	-8,333
310,2	33,867
310,7	6,067
311,1	-19,933
311,6	0,267
312,1	-8,333
312,5	-16,133
313	-28,133
313,4	11,267
313,9	21,067
314,4	35,867
314,8	9,267
315,3	25,867
315,7	8,867
316,2	19,467
316,7	29,867
317,1	35,467
317,6	9,467
318	18,467
318,5	13,067
319	43,667
319,4	31,067
319,9	-7,133
320,3	1,067
320,8	-13,333
321,3	-19,933
321,7	18,467
322,2	18,467
322,6	2,467
323,1	-4,333
323,6	34,667
324	19,667
324,5	14,067
324,9	20,667
325,4	29,067
325,9	-0,533
326,3	8,867
326,8	3,267
327,2	-17,733
327,7	3,667
328,2	29,267
328,6	24,267
329,1	19,867
329,5	29,067
330	26,267
330,5	-7,533
330,9	11,667
331,4	2,467
331,8	-5,533
332,3	-8,133
332,8	37,267
333,2	-19,533
333,7	1,267
334,1	23,467
334,6	11,067
335,1	-2,733
335,5	34,667
336	1,867
336,4	27,467
336,9	37,867
337,4	9,867
337,8	11,867
338,3	-33,333
338,7	29,467
339,2	29,267
339,7	13,667
340,1	21,067
340,6	10,067
341	-2,333
341,5	13,667
342	16,867
342,4	6,067
342,9	-5,133
343,3	19,867
343,8	-11,733
344,2	6,467
344,7	8,467
345,2	26,067
345,6	-15,933
346,1	12,667
346,5	24,067
347	-18,533
347,5	8,667
347,9	19,667
348,4	1,467
348,8	28,467
349,3	-10,133
349,8	12,667
350,2	18,267
350,7	13,867
351,1	43,267
351,6	7,867
352	19,067
352,5	22,667
353	0,667
353,4	27,467
353,9	38,667
354,3	7,467
354,8	12,267
355,3	41,067
355,7	43,867
356,2	61,667
356,6	12,067
357,1	82,867
357,5	54,667
358	75,067
358,5	104,267
358,9	110,867
359,4	123,467
359,8	112,467
360,3	193,667
360,8	165,067
361,2	237,467
361,7	237,867
362,1	278,467
362,6	321,867
363	338,867
363,5	384,867
364	420,267
364,4	506,667
364,9	491,867
365,3	569,267
365,8	629,467
366,3	668,667
366,7	667,067
367,2	732,267
367,6	752,667
368,1	759,667
368,5	785,267
369	793,667
369,5	786,867
369,9	791,667
370,4	758,667
370,8	742,267
371,3	750,467
371,7	720,267
372,2	697,667
372,7	640,267
373,1	641,467
373,6	579,667
374	530,867
374,5	481,467
374,9	454,267
375,4	432,267
375,9	395,467
376,3	399,667
376,8	331,467
377,2	322,067
377,7	295,867
378,2	273,667
378,6	252,867
379,1	215,867
379,5	215,467
380	207,867
380,4	197,267
380,9	159,067
381,4	133,267
381,8	148,667
382,3	115,867
382,7	116,267
383,2	110,667
383,6	140,867
384,1	110,867
384,6	73,267
385	63,867
385,5	67,867
385,9	37,067
386,4	63,867
386,8	49,867
387,3	43,267
387,7	54,267
388,2	49,667
388,7	49,667
389,1	53,867
389,6	10,467
390	67,267
390,5	31,867
390,9	43,067
391,4	15,867
391,9	36,067
392,3	31,467
392,8	36,067
393,2	21,867
393,7	17,667
394,1	51,467
394,6	19,467
395,1	26,467
395,5	53,267
396	19,267
396,4	8,667
396,9	7,267
397,3	22,067
397,8	32,467
398,2	39,067
398,7	49,267
399,2	42,467
399,6	53,867
400,1	24,667
400,5	25,467
401	14,867
401,4	50,867
401,9	18,467
402,4	-15,133
402,8	8,267
403,3	8,667
403,7	23,067
404,2	16,667
404,6	51,667
405,1	-17,133
405,5	54,067
406	2,667
406,5	44,867
406,9	36,667
407,4	23,067
407,8	15,867
408,3	2,467
408,7	28,467
409,2	31,467
409,6	31,067
410,1	6,667
410,6	-15,533
411	7,067
411,5	36,467
411,9	14,467
412,4	59,867
412,8	29,267
413,3	27,067
413,7	33,067
414,2	36,867
414,7	34,267
415,1	37,267
415,6	44,067
416	27,867
416,5	23,267
416,9	43,667
417,4	80,067
417,8	80,267
418,3	60,867
418,8	61,267
419,2	48,867
419,7	87,667
420,1	62,467
420,6	57,067
421	55,067
421,5	85,267
421,9	65,267
422,4	58,067
422,8	76,267
423,3	63,667
423,8	53,267
424,2	80,267
424,7	78,867
425,1	60,867
425,6	78,467
426	73,267
426,5	66,267
426,9	69,067
427,4	84,467
427,9	88,867
428,3	87,867
428,8	119,267
429,2	104,067
429,7	145,867
430,1	87,467
430,6	65,067
431	112,667
431,5	121,867
431,9	100,667
432,4	92,667
432,8	130,667
433,3	146,267
433,8	136,267
434,2	145,667
434,7	160,467
435,1	131,067
435,6	129,467
436	134,467
436,5	177,067
436,9	153,667
437,4	198,467
437,8	158,467
438,3	173,067
438,8	189,467
439,2	206,467
439,7	207,067
440,1	198,867
440,6	219,267
441	197,467
441,5	227,667
441,9	237,867
442,4	244,067
442,8	234,667
443,3	273,667
443,7	278,067
444,2	314,267
444,7	335,267
445,1	324,267
445,6	364,467
446	352,067
446,5	361,867
446,9	387,667
447,4	404,067
447,8	423,667
448,3	433,267
448,7	446,467
449,2	457,867
449,6	456,867
450,1	521,267
450,6	490,467
451	513,667
451,5	518,267
451,9	540,467
452,4	572,867
452,8	607,067
453,3	598,067
453,7	619,867
454,2	678,867
454,6	657,267
455,1	663,067
455,5	718,667
456	737,267
456,4	722,267
456,9	800,667
457,3	773,867
457,8	808,667
458,3	843,867
458,7	879,267
459,2	893,067
459,6	890,667
460,1	934,067
460,5	957,667
461	971,667
461,4	1016,067
461,9	1038,667
462,3	1047,867
462,8	1123,067
463,2	1092,867
463,7	1139,067
464,1	1180,267
464,6	1192,467
465	1224,667
465,5	1227,267
466	1272,267
466,4	1288,867
466,9	1323,667
467,3	1355,467
467,8	1370,467
468,2	1392,667
468,7	1419,867
469,1	1443,667
469,6	1438,867
470	1475,467
470,5	1528,467
470,9	1566,467
471,4	1579,067
471,8	1639,867
472,3	1622,867
472,7	1630,067
473,2	1685,867
473,6	1733,867
474,1	1696,467
474,5	1751,267
475	1784,467
475,4	1804,867
475,9	1854,267
476,4	1832,667
476,8	1894,267
477,3	1903,067
477,7	1910,267
478,2	1951,267
478,6	1975,067
479,1	1980,467
479,5	2005,667
480	2030,667
480,4	2050,667
480,9	2052,467
481,3	2040,067
481,8	2128,867
482,2	2098,067
482,7	2125,467
483,1	2128,267
483,6	2178,467
484	2187,667
484,5	2171,467
484,9	2170,267
485,4	2217,267
485,8	2242,667
486,3	2250,267
486,7	2242,667
487,2	2282,467
487,6	2280,067
488,1	2301,067
488,5	2326,867
489	2319,267
489,4	2352,067
489,9	2345,267
490,4	2342,867
490,8	2360,267
491,3	2354,667
491,7	2390,267
492,2	2410,667
492,6	2430,067
493,1	2374,267
493,5	2379,867
494	2410,467
494,4	2371,867
494,9	2420,667
495,3	2432,267
495,8	2381,467
496,2	2415,867
496,7	2389,667
497,1	2383,467
497,6	2367,867
498	2389,267
498,5	2408,667
498,9	2380,267
499,4	2408,267
499,8	2403,267
500,3	2392,667
500,7	2417,267
501,2	2390,867
501,6	2406,267
502,1	2406,667
502,5	2405,467
503	2408,067
503,4	2349,667
503,9	2369,867
504,3	2352,467
504,8	2377,867
505,2	2349,667
505,7	2371,667
506,1	2360,667
506,6	2343,467
507	2334,867
507,5	2290,667
507,9	2331,267
508,4	2344,467
508,8	2348,667
509,3	2315,467
509,7	2325,067
510,2	2295,267
510,6	2283,267
511,1	2276,667
511,5	2310,867
512	2269,467
512,4	2301,467
512,9	2261,467
513,3	2265,067
513,8	2232,267
514,2	2224,267
514,7	2245,467
515,1	2225,667
515,6	2216,667
516	2217,667
516,5	2210,067
516,9	2202,667
517,4	2163,867
517,8	2161,667
518,3	2173,867
518,7	2148,667
519,2	2194,867
519,6	2099,667
520,1	2157,667
520,5	2125,467
521	2111,667
521,4	2111,267
521,9	2118,667
522,3	2082,667
522,8	2098,667
523,2	2116,667
523,7	2054,467
524,1	2066,467
524,6	2044,667
525	2021,867
525,5	2027,667
525,9	2018,467
526,4	2077,867
526,8	2051,867
527,3	2039,467
527,7	2063,867
528,2	2011,467
528,6	1987,267
529,1	2003,867
529,5	2022,667
530	1991,067
530,4	1962,467
530,9	2013,867
531,3	1999,267
531,8	1973,267
532,2	1935,667
532,6	1937,467
533,1	1953,667
533,5	1949,467
534	1914,267
534,4	1936,667
534,9	1928,067
535,3	1913,267
535,8	1903,067
536,2	1905,867
536,7	1905,067
537,1	1923,267
537,6	1889,467
538	1880,267
538,5	1872,667
538,9	1871,267
539,4	1851,467
539,8	1880,867
540,3	1834,467
540,7	1856,267
541,2	1836,467
541,6	1843,867
542,1	1841,267
542,5	1829,067
543	1832,467
543,4	1814,267
543,9	1860,867
544,3	1826,867
544,8	1812,667
545,2	1821,867
545,7	1858,267
546,1	1795,867
546,5	1820,667
547	1779,067
547,4	1778,067
547,9	1805,067
548,3	1838,467
548,8	1841,467
549,2	1767,067
549,7	1792,067
550,1	1789,067
550,6	1800,267
551	1793,867
551,5	1789,667
551,9	1778,267
552,4	1763,667
552,8	1783,667
553,3	1715,867
553,7	1763,267
554,2	1805,867
554,6	1741,467
555,1	1694,067
555,5	1767,667
555,9	1780,267
556,4	1766,667
556,8	1770,867
557,3	1739,867
557,7	1754,467
558,2	1754,267
558,6	1726,067
559,1	1723,867
559,5	1732,667
560	1719,467
560,4	1758,067
560,9	1716,067
561,3	1754,867
561,8	1735,067
562,2	1695,667
562,7	1708,667
563,1	1700,667
563,6	1697,067
564	1731,667
564,4	1708,467
564,9	1718,267
565,3	1706,467
565,8	1698,067
566,2	1707,867
566,7	1719,667
567,1	1672,267
567,6	1719,867
568	1703,667
568,5	1699,667
568,9	1660,067
569,4	1709,067
569,8	1679,467
570,3	1640,067
570,7	1670,267
571,1	1657,867
571,6	1661,067
572	1675,467
572,5	1692,867
572,9	1647,667
573,4	1618,267
573,8	1659,467
574,3	1650,067
574,7	1626,667
575,2	1632,667
575,6	1649,267
576,1	1619,067
576,5	1646,867
576,9	1654,067
577,4	1653,067
577,8	1605,867
578,3	1611,867
578,7	1630,267
579,2	1657,667
579,6	1608,067
580,1	1628,267
580,5	1601,867
581	1569,267
581,4	1597,267
581,9	1607,067
582,3	1605,867
582,7	1559,067
583,2	1593,867
583,6	1606,467
584,1	1581,467
584,5	1560,867
585	1556,867
585,4	1562,867
585,9	1555,067
586,3	1535,867
586,8	1575,067
587,2	1521,667
587,6	1540,267
588,1	1496,067
588,5	1547,467
589	1526,667
589,4	1511,467
589,9	1536,467
590,3	1489,467
590,8	1492,467
591,2	1517,467
591,7	1495,467
592,1	1507,467
592,5	1503,667
593	1487,867
593,4	1490,267
593,9	1485,467
594,3	1515,467
594,8	1453,667
595,2	1511,067
595,7	1480,067
596,1	1457,467
596,6	1443,867
597	1438,067
597,4	1435,867
597,9	1428,667
598,3	1434,067
598,8	1429,867
599,2	1451,667
599,7	1421,267
600,1	1421,067
600,6	1443,467
601	1417,267
601,4	1422,267
601,9	1453,467
602,3	1377,667
602,8	1406,067
603,2	1398,267
603,7	1418,867
604,1	1379,267
604,6	1353,067
605	1388,067
605,4	1353,467
605,9	1379,267
606,3	1364,467
606,8	1354,667
607,2	1351,667
607,7	1333,267
608,1	1343,867
608,6	1326,467
609	1324,267
609,4	1327,667
609,9	1351,667
610,3	1332,467
610,8	1295,867
611,2	1320,067
611,7	1301,267
612,1	1297,267
612,6	1299,467
613	1304,267
613,4	1285,467
613,9	1267,667
614,3	1236,467
614,8	1332,467
615,2	1263,267
615,7	1238,867
616,1	1251,867
616,6	1261,067
617	1222,267
617,4	1265,267
617,9	1268,267
618,3	1275,067
618,8	1241,667
619,2	1210,867
619,7	1235,467
620,1	1225,067
620,5	1209,467
621	1219,467
621,4	1218,067
621,9	1179,667
622,3	1200,467
622,8	1188,467
623,2	1146,867
623,6	1169,867
624,1	1170,867
624,5	1165,867
625	1117,667
625,4	1137,067
625,9	1159,067
626,3	1125,867
626,8	1142,867
627,2	1133,667
627,6	1075,267
628,1	1124,267
628,5	1069,067
629	1125,667
629,4	1096,267
629,9	1086,867
630,3	1047,667
630,7	1093,867
631,2	1086,267
631,6	1053,667
632,1	1074,067
632,5	1038,667
633	1055,867
633,4	1070,667
633,8	1050,467
634,3	1031,467
634,7	1035,067
635,2	1044,267
635,6	1012,867
636,1	1024,067
636,5	984,267
636,9	992,067
637,4	984,267
637,8	1010,067
638,3	977,067
638,7	1000,067
639,2	977,667
639,6	955,267
640	936,067
640,5	928,467
640,9	973,067
641,4	937,267
641,8	913,667
642,2	955,667
642,7	926,467
643,1	941,667
643,6	961,267
644	925,867
644,5	947,467
644,9	930,067
645,3	902,867
645,8	905,667
646,2	909,067
646,7	923,867
647,1	872,667
647,6	900,067
648	905,467
648,4	889,267
648,9	847,867
649,3	882,867
649,8	880,267
650,2	870,667
650,6	835,867
651,1	874,067
651,5	818,267
652	838,867
652,4	866,067
652,9	844,067
653,3	853,067
653,7	839,667
654,2	835,267
654,6	845,667
655,1	817,467
655,5	830,667
655,9	790,067
656,4	807,067
656,8	792,067
657,3	843,667
657,7	792,067
658,2	811,067
658,6	776,267
659	787,467
659,5	744,267
659,9	767,667
660,4	756,667
660,8	727,667
661,2	733,467
661,7	748,067
662,1	742,667
662,6	738,267
663	726,467
663,4	742,067
663,9	728,267
664,3	728,467
664,8	727,067
665,2	698,867
665,6	687,867
666,1	698,067
666,5	701,867
667	690,467
667,4	716,667
667,9	678,867
668,3	702,067
668,7	667,467
669,2	690,067
669,6	686,267
670,1	673,267
670,5	671,267
670,9	647,267
671,4	634,667
671,8	641,067
672,3	613,067
672,7	642,667
673,1	653,467
673,6	631,667
674	625,867
674,5	638,667
674,9	636,067
675,3	618,267
675,8	636,867
676,2	585,867
676,7	616,667
677,1	596,667
677,5	589,467
678	607,267
678,4	592,067
678,9	610,467
679,3	599,667
679,7	581,267
680,2	587,067
680,6	612,467
681,1	579,467
681,5	588,267
681,9	595,467
682,4	566,067
682,8	531,667
683,3	563,867
683,7	523,867
684,1	547,867
684,6	556,267
685	551,667
685,5	551,067
685,9	546,467
686,3	560,467
686,8	495,067
687,2	515,267
687,7	535,067
688,1	491,067
688,5	528,267
689	533,467
689,4	509,467
689,9	502,067
690,3	500,867
690,7	506,267
691,2	476,267
691,6	494,867
692	519,667
692,5	485,867
692,9	508,467
693,4	464,067
693,8	495,867
694,2	476,267
694,7	492,467
695,1	459,067
695,6	464,067
696	486,467
696,4	461,867
696,9	441,667
697,3	473,067
697,8	464,867
698,2	437,867
698,6	464,267
699,1	456,667
699,5	453,867
699,9	434,667
700,4	448,467
700,8	411,667
701,3	438,467
701,7	455,867
702,1	429,667
702,6	425,867
703	395,267
703,5	428,067
703,9	393,467
704,3	398,067
704,8	411,267
705,2	447,067
705,6	403,067
706,1	388,667
706,5	385,667
707	393,867
707,4	378,067
707,8	399,067
708,3	386,667
708,7	396,067
709,2	388,667
709,6	352,467
710	405,467
710,5	345,867
710,9	337,267
711,3	365,067
711,8	364,267
712,2	377,067
712,7	349,067
713,1	362,067
713,5	385,467
714	336,667
714,4	359,067
714,8	342,067
715,3	385,467
715,7	338,867
716,2	377,267
716,6	356,667
717	306,467
717,5	321,667
717,9	326,067
718,3	349,467
718,8	341,067
719,2	340,667
719,7	339,467
720,1	334,667
720,5	316,867
721	338,267
721,4	304,867
721,8	307,667
722,3	288,467
722,7	285,067
723,2	330,067
723,6	300,667
724	316,067
724,5	290,667
724,9	312,867
725,3	301,267
725,8	318,067
726,2	283,067
726,7	282,267
727,1	297,667
727,5	297,467
728	278,067
728,4	260,667
728,8	301,467
729,3	287,667
729,7	259,867
730,1	293,267
730,6	291,067
731	248,467
731,5	250,067
731,9	291,267
732,3	266,067
732,8	237,267
733,2	263,667
733,6	263,867
734,1	252,267
734,5	255,667
734,9	280,067
735,4	293,267
735,8	252,867
736,3	271,467
736,7	251,267
737,1	243,467
737,6	267,667
738	253,867
738,4	239,267
738,9	235,067
739,3	269,267
739,7	257,867
740,2	225,867
740,6	244,667
741,1	245,267
741,5	239,467
741,9	231,467
742,4	244,067
742,8	254,867
743,2	192,267
743,7	232,267
744,1	209,667
744,5	225,667
745	234,267
745,4	223,467
745,8	224,267
746,3	241,467
746,7	249,667
747,2	203,667
747,6	211,267
748	183,867
748,5	231,267
748,9	233,067
749,3	201,267
749,8	222,267
750,2	211,867
750,6	178,267
751,1	191,067
751,5	190,467
751,9	209,667
752,4	214,067
752,8	209,067
753,3	201,067
753,7	234,067
754,1	165,867
754,6	192,467
755	192,067
755,4	190,267
755,9	181,467
756,3	156,467
756,7	220,067
757,2	191,267
757,6	167,867
758	189,267
758,5	199,867
758,9	179,467
759,3	175,467
759,8	167,467
760,2	157,467
760,6	176,267
761,1	172,067
761,5	140,267
761,9	200,067
762,4	163,667
762,8	183,867
763,3	163,667
763,7	163,067
764,1	140,467
764,6	165,667
765	162,867
765,4	180,667
765,9	161,467
766,3	174,867
766,7	165,867
767,2	164,667
767,6	143,867
768	179,467
768,5	157,867
768,9	131,667
769,3	171,067
769,8	117,667
770,2	148,667
770,6	149,267
771,1	176,667
771,5	130,867
771,9	159,667
772,4	161,267
772,8	132,867
773,2	166,667
773,7	136,667
774,1	146,067
774,5	155,667
775	140,467
775,4	151,267
775,8	161,267
776,3	154,467
776,7	153,267
777,1	139,467
777,6	149,867
778	128,667
778,4	155,867
778,9	137,667
779,3	110,667
779,7	152,067
780,2	152,467
780,6	159,467
781	129,667
781,5	143,267
781,9	146,467
782,3	133,667
782,8	110,867
783,2	131,467
783,6	126,867
784,1	130,467
784,5	155,067
784,9	108,067
785,4	156,267
785,8	138,267
786,2	101,067
786,7	108,467
787,1	122,267
787,5	90,467
788	85,867
788,4	151,667
788,8	108,467
789,3	125,267
789,7	115,267
790,1	138,067
790,6	115,867
791	106,867
791,4	102,667
791,9	96,867
792,3	111,067
792,7	102,267
793,2	109,467
793,6	103,667
794	97,267
794,5	107,467
794,9	128,667
795,3	104,667
795,8	100,267
796,2	91,467
796,6	138,267
797,1	112,867
797,5	143,867
797,9	115,467
798,4	119,067
798,8	123,667
799,2	62,267
799,7	101,667
800,1	86,667
800,5	127,267
801	119,667
801,4	111,667
801,8	117,067
802,2	82,467
802,7	50,467
803,1	91,667
803,5	80,867
804	89,067
804,4	77,267
804,8	77,267
805,3	105,667
805,7	75,667
806,1	87,867
806,6	104,067
807	86,667
807,4	71,267
807,9	101,267
808,3	71,467
808,7	87,067
809,2	73,667
809,6	65,067
810	78,667
810,4	83,067
810,9	114,267
811,3	97,267
811,7	87,867
812,2	48,267
812,6	73,267
813	96,867
813,5	87,267
813,9	90,867
814,3	91,067
814,8	82,867
815,2	76,667
815,6	74,067
816,1	103,067
816,5	124,867
816,9	91,467
817,3	52,267
817,8	78,267
818,2	61,467
818,6	68,067
819,1	39,867
819,5	69,067
819,9	39,867
820,4	69,067
820,8	76,667
821,2	107,267
821,7	88,067
822,1	49,667
822,5	105,267
822,9	56,067
823,4	70,467
823,8	63,867
824,2	48,667
824,7	81,867
825,1	65,867
825,5	60,067
826	82,467
826,4	51,867
826,8	60,467
827,3	44,467
827,7	57,667
828,1	80,467
828,5	57,067
829	74,667
829,4	41,667
829,8	62,667
830,3	58,267
830,7	41,067
831,1	29,267
831,6	45,067
832	64,467
832,4	54,267
832,8	34,467
833,3	72,867
833,7	60,867
834,1	55,067
834,6	67,467
835	59,867
835,4	72,067
835,8	50,867
836,3	71,467
836,7	38,867
837,1	36,467
837,6	59,867
838	33,867
838,4	78,267
838,9	61,667
839,3	26,867
839,7	47,267
840,1	68,867
840,6	35,067
841	40,267
841,4	41,667
841,9	80,267
842,3	67,867
842,7	45,867
843,1	49,867
843,6	50,267
844	69,467
844,4	27,867
844,9	35,067
845,3	28,267
845,7	33,867
846,2	48,467
846,6	27,267
847	52,667
847,4	59,067
847,9	78,067
848,3	75,467
848,7	27,267
849,2	31,667
849,6	45,667
850	34,267
850,4	75,067
850,9	43,667
851,3	43,267
851,7	38,267
852,2	56,067
852,6	56,667
853	44,867
853,4	58,667
853,9	55,667
854,3	53,067
854,7	42,867
855,2	45,067
855,6	43,267
856	34,467
856,4	38,467
856,9	55,067
857,3	61,867
857,7	36,067
858,2	39,267
858,6	21,867
859	32,067
859,4	26,667
859,9	8,667
860,3	56,267
860,7	60,267
861,1	17,267
861,6	21,467
862	38,067
862,4	14,867
862,9	22,867
863,3	28,867
863,7	17,667
864,1	48,267
864,6	4,667
865	47,467
865,4	42,667
865,9	53,267
866,3	1,667
866,7	8,867
867,1	33,667
867,6	37,467
868	28,467
868,4	13,667
868,8	56,267
869,3	-5,333
869,7	3,267
870,1	32,467
870,6	20,067
871	45,667
871,4	48,667
871,8	35,067
872,3	537,667
872,7	0,267
873,1	29,867
873,5	47,667
874	26,267
874,4	-3,733
874,8	14,267
875,3	3,467
875,7	30,467
876,1	36,067
876,5	30,467
877	38,067
877,4	16,467
877,8	9,067
878,2	43,067
878,7	31,267
879,1	40,467
879,5	27,467
879,9	34,867
880,4	35,867
880,8	41,467
881,2	46,867
881,7	46,867
882,1	24,467
882,5	40,267
882,9	47,467
883,4	45,067
883,8	26,467
884,2	23,867
884,6	23,067
885,1	13,267
885,5	15,467
885,9	30,267
886,3	11,267
886,8	-21,733
887,2	39,867
887,6	28,267
888	1,667
888,5	7,867
888,9	5,667
889,3	41,467
889,8	18,067
890,2	5,267
890,6	28,867
891	23,467
891,5	21,267
891,9	26,067
892,3	-0,533
892,7	29,867
893,2	9,667
893,6	37,067
894	16,067
894,4	16,267
894,9	26,667
895,3	10,467
895,7	28,867
896,1	27,867
896,6	16,067
897	25,867
897,4	40,467
897,8	26,467
898,3	18,667
898,7	-6,933
899,1	8,867
899,5	30,267
900	44,467
900,4	18,867
900,8	44,867
901,2	-1,133
901,7	6,667
902,1	32,467
902,5	9,867
902,9	9,667
903,4	14,467
903,8	18,867
904,2	31,667
904,6	20,667
905,1	30,867
905,5	27,467
905,9	14,067
906,3	3,067
906,8	40,867
907,2	27,467
907,6	18,067
908	17,267
908,5	41,267
908,9	26,467
909,3	26,467
909,7	12,667
910,2	14,467
910,6	7,467
911	13,867
911,4	31,667
911,9	25,267
912,3	24,067
912,7	6,267
913,1	-9,333
913,6	-0,533
914	31,867
914,4	39,267
914,8	32,467
915,3	31,067
915,7	37,067
916,1	28,867
916,5	-8,533
916,9	40,867
917,4	8,667
917,8	33,267
918,2	4,867
918,6	24,267
919,1	35,267
919,5	14,867
919,9	-4,333
920,3	26,267
920,8	14,067
921,2	9,667
921,6	-32,133
922	-7,133
922,5	1,867
922,9	5,867
923,3	-9,733
923,7	31,467
924,2	31,267
924,6	20,267
925	7,667
925,4	29,067
925,8	17,667
926,3	7,267
926,7	9,267
927,1	32,467
927,5	-25,333
928	0,267
928,4	15,467
928,8	26,667
929,2	1,667
929,7	13,467
930,1	12,067
930,5	58,467
930,9	-0,533
931,3	33,067
931,8	46,667
932,2	1,267
932,6	-1,733
933	24,667
933,5	28,667
933,9	-2,933
934,3	-28,133
934,7	2,067
935,2	41,667
935,6	7,467
936	16,267
936,4	25,467
936,8	-9,133
937,3	-1,933
937,7	8,267
938,1	28,267
938,5	12,667
939	42,867
939,4	5,467
939,8	-6,133
940,2	30,667
940,6	4,467
941,1	48,867
941,5	10,067
941,9	6,667
942,3	10,867
942,8	39,867
943,2	-0,333
943,6	2,467
944	2,067
944,4	2,667
944,9	40,267
945,3	5,667
945,7	9,867
946,1	-11,733
946,6	9,867
947	23,667
947,4	20,067
947,8	-13,133
948,2	15,667
948,7	7,667
949,1	8,867
949,5	-0,333
949,9	5,267
950,3	16,267
950,8	-2,933
951,2	15,667
951,6	21,467
952	3,667
952,5	16,867
952,9	27,067
953,3	30,667
953,7	10,467
954,1	16,467
954,6	12,867
955	9,267
955,4	-3,333
955,8	37,067
956,2	17,467
956,7	46,667
957,1	27,467
957,5	16,467
957,9	18,267
958,3	32,867
958,8	16,867
959,2	4,467
959,6	11,867
960	17,267
960,5	9,067
960,9	14,467
961,3	-11,333
961,7	48,267
962,1	15,867
962,6	11,467
963	5,067
963,4	34,267
963,8	-4,133
964,2	45,867
964,7	11,067
965,1	-9,133
965,5	18,467
965,9	-29,133
966,3	1,267
966,8	3,267
967,2	-20,533
967,6	15,267
968	0,467
968,4	10,467
968,9	9,667
969,3	22,267
969,7	9,267
970,1	39,267
970,5	-1,533
971	13,267
971,4	15,067
971,8	-10,533
972,2	26,667
972,6	-6,333
973,1	3,067
973,5	9,067
973,9	9,667
974,3	13,067
974,7	10,667
975,2	14,867
975,6	-8,333
976	14,867
976,4	22,467
976,8	17,667
977,3	8,267
977,7	-1,733
978,1	5,867
978,5	49,467
978,9	17,667
979,4	11,867
979,8	-3,733
980,2	30,067
980,6	-11,933
981	28,667
981,5	-12,533
981,9	11,867
982,3	35,267
982,7	40,667
983,1	25,267
983,6	12,267
984	12,267
984,4	3,467
984,8	23,067
985,2	20,267
985,6	5,867
986,1	-1,133
986,5	18,667
986,9	18,067
987,3	30,067
987,7	13,867
988,2	17,467
988,6	6,667
989	11,667
989,4	-14,333
989,8	14,267
990,3	-27,333
990,7	46,667
991,1	-15,333
991,5	17,467
991,9	27,467
992,3	12,467
992,8	-25,133
993,2	0,467
993,6	-15,333
994	6,667
994,4	9,067
994,9	-11,533
995,3	-20,933
995,7	15,067
996,1	18,467
996,5	8,467
996,9	16,867
997,4	7,067
997,8	37,067
998,2	-9,133
998,6	33,267
999	15,867
999,5	7,867
999,9	-9,733
1000,3	16,067
1000,7	6,867
1001,1	18,667
1001,5	-5,533
1002	28,467
1002,4	36,867
1002,8	48,267
1003,2	39,867
1003,6	0,667
1004	16,667
1004,5	21,467
1004,9	1,867
1005,3	6,267
1005,7	-5,133
1006,1	18,267
1006,6	-9,733
1007	10,467
1007,4	30,867
1007,8	30,667
1008,2	11,267
1008,6	14,667
1009,1	10,867
1009,5	-11,933
1009,9	5,667
1010,3	-7,733
1010,7	30,867
1011,1	16,067
1011,6	-21,933
1012	20,467
1012,4	5,867
1012,8	-35,133
1013,2	9,267
1013,6	14,467
1014,1	4,867
1014,5	9,467
1014,9	18,267
1015,3	11,867
1015,7	-0,933
1016,1	2,667
1016,6	6,867
1017	3,667
1017,4	12,667
1017,8	19,667
1018,2	15,867
1018,6	21,267
1019,1	25,267
1019,5	9,667
1019,9	45,867
1020,3	26,467
1020,7	32,867
1021,1	14,067
1021,6	0,267
1022	-9,933
1022,4	-10,133
1022,8	24,267
1023,2	7,267
1023,6	-3,533
1024,1	32,267
1024,5	-5,733
1024,9	-7,333
1025,3	52,667
1025,7	30,867
1026,1	44,467
1026,6	-29,933
1027	13,267
1027,4	34,267
1027,8	33,067
1028,2	-9,733
1028,6	22,867
1029	8,267
1029,5	-9,533
1029,9	7,667
1030,3	-3,533
1030,7	3,067
1031,1	-29,733
1031,5	30,267
1032	9,267
1032,4	20,867
1032,8	-22,933
1033,2	-20,133
1033,6	4,067
1034	4,267
1034,4	5,867
1034,9	4,067
1035,3	19,267
1035,7	10,067
1036,1	-1,333
1036,5	0,467
1036,9	0,067
1037,4	-3,533
1037,8	1,467
1038,2	32,267
1038,6	30,267
1039	33,867
1039,4	33,267
1039,8	-30,333
1040,3	-2,733
1040,7	18,867
1041,1	8,467
1041,5	37,867
1041,9	29,267
1042,3	15,467
1042,7	38,867
1043,2	3,467
1043,6	3,267
1044	-9,333
1044,4	13,067
1044,8	15,467
1045,2	-4,133
1045,6	9,067
1046,1	20,267
1046,5	1,867
1046,9	10,467
1047,3	18,667
1047,7	27,867
1048,1	-3,133
1048,5	9,067
1049	-6,133
1049,4	-20,133
1049,8	38,667
1050,2	20,667
1050,6	31,067
1051	25,667
1051,4	-14,533
1051,9	9,667
1052,3	31,667
1052,7	-3,933
1053,1	26,267
1053,5	-3,933
1053,9	29,267
1054,3	3,067
1054,8	20,867
1055,2	4,667
1055,6	30,067
1056	-0,933
1056,4	-4,733
1056,8	30,667
1057,2	-15,333
1057,6	-5,333
1058,1	-7,533
1058,5	-7,133
1058,9	1,667
1059,3	7,467
1059,7	6,067
1060,1	-5,733
1060,5	10,867
1061	25,267
1061,4	31,267
1061,8	44,067
1062,2	1,467
1062,6	7,467
1063	1,067
1063,4	35,267
1063,8	23,467
1064,3	9,667
1064,7	-20,333
1065,1	26,867
1065,5	14,667
1065,9	0,067
1066,3	23,867
1066,7	5,667
1067,1	11,467
1067,6	3,467
1068	-26,333
1068,4	1,667
1068,8	-5,933
1069,2	0,467
1069,6	36,667
1070	-0,733
1070,4	-19,933
1070,9	10,467
1071,3	7,667
1071,7	-24,533
1072,1	-3,133
1072,5	23,467
1072,9	32,867
1073,3	6,467
1073,7	15,267
1074,2	18,867
1074,6	27,667
1075	37,667
1075,4	12,867
1075,8	37,467
1076,2	16,067
1076,6	8,467
1077	4,867
1077,5	6,467
1077,9	-7,133
1078,3	5,667
1078,7	17,667
1079,1	13,867
1079,5	34,267
1079,9	46,467
1080,3	-0,533
1080,7	17,867
1081,2	30,467
1081,6	-2,133
1082	-4,333
1082,4	13,467
1082,8	11,067
1083,2	36,667
1083,6	-8,133
1084	-21,133
1084,5	-10,533
1084,9	16,467
1085,3	20,667
1085,7	2,467
1086,1	3,667
1086,5	1,467
1086,9	25,667
1087,3	11,467
1087,7	21,267
1088,2	-18,933
1088,6	15,867
1089	22,467
1089,4	-15,733
1089,8	-18,533
1090,2	21,067
1090,6	30,667
1091	-2,733
1091,4	2,667
1091,9	-1,533
1092,3	17,067
1092,7	-9,333
1093,1	42,467
1093,5	-4,333
1093,9	-19,733
1094,3	10,467
1094,7	12,867
1095,1	2,667
1095,5	2,867
1096	25,467
1096,4	-7,333
1096,8	2,467
1097,2	19,667
1097,6	8,467
1098	15,467
1098,4	-14,933
1098,8	5,467
1099,2	-10,733
1099,6	10,467
1100,1	37,267
1100,5	15,267
1100,9	7,267
1101,3	0,667
1101,7	11,867
1102,1	1,667
1102,5	-4,933
1102,9	13,867
1103,3	-2,133
1103,7	15,667
1104,2	49,467
1104,6	-7,933
1105	-6,733
1105,4	22,067
1105,8	8,867
1106,2	17,667
1106,6	4,267
1107	-0,933
1107,4	0,067
1107,8	-1,333
1108,3	0,467
