Data from Subt2_00035.txt Node
Date: Wed Aug 02 19:41:31 MSK 2023
User: vat
Spectrometer: MAYP114033
Trigger mode: 0
Integration Time (sec): 7,000000E-1
Scans to average: 5
Electric dark correction enabled: true
Nonlinearity correction enabled: false
Boxcar width: 0
XAxis mode: Wavelengths
Number of Pixels in Spectrum: 2068
>>>>>Begin Spectral Data<<<<<
199,4	-1,767
199,9	0,833
200,4	-0,967
200,8	1,033
201,3	13,233
201,8	-12,767
202,2	-44,767
202,7	6,033
203,2	11,833
203,6	1,633
204,1	2,833
204,6	7,233
205	16,433
205,5	0,233
206	12,233
206,4	11,833
206,9	8,633
207,4	-9,967
207,8	30,433
208,3	31,433
208,8	7,433
209,2	11,633
209,7	0,633
210,2	19,033
210,6	-11,367
211,1	2,633
211,5	4,433
212	-14,767
212,5	10,833
212,9	-38,167
213,4	3,433
213,9	28,633
214,3	36,433
214,8	41,833
215,3	-4,767
215,7	33,433
216,2	14,633
216,7	-4,567
217,1	-24,567
217,6	2,233
218,1	12,833
218,5	-4,567
219	-2,167
219,5	-19,367
219,9	9,433
220,4	4,433
220,9	-4,967
221,3	18,433
221,8	36,633
222,3	19,633
222,7	-14,967
223,2	-1,167
223,6	-12,967
224,1	23,633
224,6	22,433
225	8,833
225,5	1,433
226	8,433
226,4	23,033
226,9	-13,567
227,4	6,033
227,8	19,033
228,3	30,233
228,8	2,433
229,2	7,033
229,7	39,033
230,2	8,633
230,6	-3,767
231,1	10,433
231,5	15,633
232	-2,967
232,5	17,233
232,9	-9,567
233,4	10,433
233,9	4,833
234,3	-0,567
234,8	22,033
235,3	35,833
235,7	-15,167
236,2	7,433
236,7	13,433
237,1	10,433
237,6	14,033
238,1	16,833
238,5	31,233
239	-17,767
239,4	-19,167
239,9	8,833
240,4	-18,967
240,8	9,633
241,3	9,033
241,8	46,833
242,2	8,833
242,7	45,233
243,2	7,033
243,6	5,433
244,1	-3,567
244,6	5,033
245	-23,367
245,5	21,833
245,9	0,833
246,4	15,433
246,9	-6,367
247,3	9,233
247,8	-8,167
248,3	14,633
248,7	0,433
249,2	10,033
249,7	11,633
250,1	14,033
250,6	25,633
251	4,033
251,5	8,033
252	2,833
252,4	-11,967
252,9	5,833
253,4	-3,967
253,8	-23,767
254,3	28,433
254,8	0,433
255,2	-7,567
255,7	18,833
256,1	12,233
256,6	14,233
257,1	10,633
257,5	-10,567
258	24,633
258,5	1,633
258,9	-4,367
259,4	15,833
259,9	24,233
260,3	8,233
260,8	-6,767
261,2	2,233
261,7	7,433
262,2	1,033
262,6	-5,567
263,1	27,833
263,6	-17,367
264	5,433
264,5	40,033
264,9	18,033
265,4	14,433
265,9	-3,967
266,3	-22,967
266,8	10,833
267,3	16,433
267,7	4,033
268,2	-0,567
268,7	9,633
269,1	18,833
269,6	20,433
270	0,633
270,5	25,033
271	6,033
271,4	-0,367
271,9	26,833
272,4	-4,567
272,8	14,833
273,3	16,033
273,7	28,833
274,2	-3,967
274,7	-29,167
275,1	-13,367
275,6	-21,767
276,1	1,433
276,5	0,433
277	11,433
277,4	1,233
277,9	-14,567
278,4	-12,567
278,8	14,433
279,3	13,633
279,8	10,833
280,2	20,833
280,7	8,433
281,1	17,633
281,6	-0,767
282,1	-7,767
282,5	36,633
283	-4,167
283,4	-4,367
283,9	2,633
284,4	2,633
284,8	0,433
285,3	-6,767
285,8	4,833
286,2	23,233
286,7	5,833
287,1	19,233
287,6	-4,767
288,1	24,233
288,5	1,833
289	-13,567
289,5	4,433
289,9	-2,567
290,4	12,633
290,8	15,033
291,3	15,433
291,8	-20,367
292,2	-7,767
292,7	20,633
293,1	9,033
293,6	-25,167
294,1	7,233
294,5	-8,167
295	-6,167
295,5	-8,167
295,9	23,233
296,4	28,033
296,8	-34,767
297,3	-2,767
297,8	-7,167
298,2	51,033
298,7	13,033
299,1	12,033
299,6	-22,567
300,1	14,433
300,5	-2,367
301	14,233
301,5	-21,767
301,9	21,633
302,4	-20,367
302,8	-36,367
303,3	-1,567
303,8	28,433
304,2	-21,567
304,7	33,833
305,1	-15,967
305,6	34,433
306,1	-8,967
306,5	1,633
307	6,033
307,4	3,033
307,9	-9,567
308,4	-6,767
308,8	-38,567
309,3	15,433
309,8	18,433
310,2	-2,967
310,7	12,633
311,1	27,433
311,6	43,833
312,1	1,833
312,5	4,033
313	-1,767
313,4	-14,367
313,9	-7,967
314,4	12,433
314,8	23,833
315,3	-29,367
315,7	-7,367
316,2	7,233
316,7	5,433
317,1	-6,567
317,6	19,633
318	-10,367
318,5	-3,967
319	18,633
319,4	12,233
319,9	11,833
320,3	-7,767
320,8	26,833
321,3	-9,567
321,7	6,633
322,2	15,233
322,6	-13,167
323,1	-4,767
323,6	21,233
324	-11,567
324,5	9,833
324,9	11,233
325,4	-2,767
325,9	13,033
326,3	-18,167
326,8	30,433
327,2	0,033
327,7	4,233
328,2	25,833
328,6	5,633
329,1	6,033
329,5	-3,567
330	23,033
330,5	-6,367
330,9	22,233
331,4	-2,167
331,8	15,433
332,3	3,233
332,8	25,633
333,2	-9,567
333,7	17,233
334,1	14,833
334,6	11,033
335,1	-16,567
335,5	34,633
336	15,233
336,4	27,833
336,9	3,033
337,4	2,633
337,8	12,433
338,3	10,233
338,7	23,433
339,2	-19,367
339,7	25,833
340,1	-23,367
340,6	16,433
341	36,233
341,5	10,033
342	1,233
342,4	-1,967
342,9	31,433
343,3	29,433
343,8	38,833
344,2	25,433
344,7	40,633
345,2	45,433
345,6	22,633
346,1	26,233
346,5	46,033
347	45,033
347,5	53,033
347,9	18,433
348,4	-2,367
348,8	30,833
349,3	44,033
349,8	21,833
350,2	45,633
350,7	52,833
351,1	47,033
351,6	52,833
352	106,433
352,5	59,833
353	119,233
353,4	116,233
353,9	156,833
354,3	188,233
354,8	253,033
355,3	282,633
355,7	341,633
356,2	397,633
356,6	486,433
357,1	572,033
357,5	703,433
358	794,033
358,5	946,433
358,9	1101,033
359,4	1262,633
359,8	1477,833
360,3	1678,633
360,8	1922,433
361,2	2206,233
361,7	2497,433
362,1	2848,833
362,6	3263,433
363	3601,033
363,5	4037,433
364	4525,033
364,4	4951,833
364,9	5415,233
365,3	5857,633
365,8	6303,833
366,3	6641,233
366,7	7118,833
367,2	7393,233
367,6	7663,833
368,1	7861,033
368,5	7970,233
369	8079,833
369,5	8072,433
369,9	7969,433
370,4	7870,633
370,8	7672,033
371,3	7408,633
371,7	7115,633
372,2	6811,633
372,7	6465,033
373,1	6016,033
373,6	5709,833
374	5345,833
374,5	4945,033
374,9	4613,633
375,4	4275,033
375,9	3862,033
376,3	3619,233
376,8	3304,633
377,2	3056,033
377,7	2787,433
378,2	2562,433
378,6	2319,633
379,1	2097,033
379,5	1925,433
380	1749,233
380,4	1612,233
380,9	1487,833
381,4	1313,033
381,8	1262,033
382,3	1141,233
382,7	1055,233
383,2	981,233
383,6	907,833
384,1	823,033
384,6	776,433
385	739,633
385,5	647,033
385,9	634,233
386,4	577,033
386,8	520,833
387,3	490,633
387,7	452,233
388,2	414,833
388,7	377,633
389,1	381,233
389,6	342,833
390	316,033
390,5	270,433
390,9	266,433
391,4	263,233
391,9	209,033
392,3	240,833
392,8	139,233
393,2	184,433
393,7	177,633
394,1	144,633
394,6	150,833
395,1	138,633
395,5	140,433
396	110,433
396,4	126,633
396,9	81,233
397,3	105,033
397,8	94,433
398,2	104,033
398,7	100,233
399,2	62,633
399,6	70,833
400,1	56,433
400,5	82,633
401	40,033
401,4	70,033
401,9	65,433
402,4	64,833
402,8	59,433
403,3	43,433
403,7	55,833
404,2	52,833
404,6	30,033
405,1	58,433
405,5	48,433
406	53,433
406,5	32,633
406,9	43,833
407,4	24,033
407,8	42,233
408,3	40,433
408,7	47,833
409,2	41,633
409,6	59,233
410,1	45,033
410,6	67,833
411	49,433
411,5	71,833
411,9	-5,567
412,4	51,033
412,8	26,833
413,3	52,633
413,7	67,033
414,2	56,233
414,7	44,833
415,1	42,833
415,6	28,233
416	52,433
416,5	57,433
416,9	71,433
417,4	41,833
417,8	56,433
418,3	50,833
418,8	42,833
419,2	45,033
419,7	50,633
420,1	34,033
420,6	47,433
421	68,633
421,5	99,833
421,9	46,033
422,4	60,233
422,8	59,033
423,3	57,233
423,8	84,633
424,2	80,633
424,7	70,033
425,1	77,033
425,6	81,833
426	88,633
426,5	112,633
426,9	100,433
427,4	75,033
427,9	103,833
428,3	85,833
428,8	130,833
429,2	85,633
429,7	94,633
430,1	108,233
430,6	138,633
431	104,833
431,5	108,233
431,9	151,033
432,4	134,033
432,8	154,633
433,3	169,633
433,8	161,033
434,2	166,033
434,7	163,233
435,1	186,433
435,6	199,433
436	224,433
436,5	219,433
436,9	201,833
437,4	226,233
437,8	220,233
438,3	244,833
438,8	230,833
439,2	248,033
439,7	264,233
440,1	281,633
440,6	278,433
441	263,833
441,5	326,833
441,9	313,833
442,4	333,033
442,8	345,433
443,3	334,633
443,7	351,833
444,2	379,633
444,7	394,033
445,1	400,033
445,6	436,833
446	431,233
446,5	461,033
446,9	427,033
447,4	479,633
447,8	474,233
448,3	523,233
448,7	520,633
449,2	546,833
449,6	525,433
450,1	541,433
450,6	597,433
451	590,233
451,5	592,033
451,9	628,033
452,4	666,433
452,8	671,633
453,3	699,233
453,7	718,633
454,2	789,833
454,6	774,433
455,1	772,233
455,5	814,233
456	851,233
456,4	864,633
456,9	854,033
457,3	933,633
457,8	893,033
458,3	952,633
458,7	967,233
459,2	987,033
459,6	1021,833
460,1	1044,833
460,5	1060,033
461	1088,633
461,4	1121,833
461,9	1151,033
462,3	1176,833
462,8	1210,633
463,2	1195,233
463,7	1256,833
464,1	1287,833
464,6	1301,033
465	1310,233
465,5	1338,433
466	1403,633
466,4	1421,433
466,9	1467,833
467,3	1470,433
467,8	1483,433
468,2	1519,833
468,7	1600,233
469,1	1572,833
469,6	1613,433
470	1638,433
470,5	1649,233
470,9	1659,433
471,4	1682,833
471,8	1704,033
472,3	1717,033
472,7	1757,833
473,2	1773,833
473,6	1805,033
474,1	1826,633
474,5	1835,433
475	1856,633
475,4	1858,833
475,9	1886,033
476,4	1927,433
476,8	1921,833
477,3	1964,433
477,7	1983,033
478,2	1982,433
478,6	2021,433
479,1	2003,633
479,5	2048,033
480	2029,633
480,4	2038,233
480,9	2071,633
481,3	2051,633
481,8	2078,233
482,2	2073,633
482,7	2096,833
483,1	2065,433
483,6	2087,433
484	2126,633
484,5	2108,633
484,9	2093,633
485,4	2149,033
485,8	2121,833
486,3	2123,633
486,7	2077,633
487,2	2071,633
487,6	2116,633
488,1	2112,033
488,5	2087,033
489	2119,833
489,4	2087,433
489,9	2079,633
490,4	2107,433
490,8	2091,433
491,3	2062,033
491,7	2080,433
492,2	2067,033
492,6	2070,433
493,1	2057,433
493,5	2031,433
494	2039,833
494,4	1986,433
494,9	2029,433
495,3	1998,233
495,8	1966,033
496,2	1957,033
496,7	1954,633
497,1	1972,233
497,6	1965,633
498	1921,833
498,5	1922,833
498,9	1880,033
499,4	1872,033
499,8	1835,233
500,3	1846,033
500,7	1839,433
501,2	1840,233
501,6	1826,033
502,1	1807,833
502,5	1806,433
503	1775,033
503,4	1774,033
503,9	1766,033
504,3	1766,433
504,8	1737,233
505,2	1720,433
505,7	1682,433
506,1	1714,833
506,6	1669,633
507	1629,033
507,5	1618,233
507,9	1598,633
508,4	1579,033
508,8	1584,233
509,3	1526,233
509,7	1557,433
510,2	1535,633
510,6	1521,033
511,1	1507,033
511,5	1498,833
512	1456,233
512,4	1441,033
512,9	1439,233
513,3	1424,833
513,8	1428,233
514,2	1354,233
514,7	1394,033
515,1	1339,833
515,6	1318,433
516	1352,033
516,5	1308,833
516,9	1270,833
517,4	1299,833
517,8	1266,833
518,3	1255,233
518,7	1236,833
519,2	1240,233
519,6	1195,633
520,1	1196,833
520,5	1160,633
521	1176,033
521,4	1148,033
521,9	1143,233
522,3	1148,033
522,8	1113,033
523,2	1096,433
523,7	1106,633
524,1	1070,833
524,6	1048,833
525	1053,633
525,5	1034,433
525,9	1035,633
526,4	1023,633
526,8	999,433
527,3	996,033
527,7	988,033
528,2	976,833
528,6	954,433
529,1	899,633
529,5	950,233
530	942,033
530,4	919,033
530,9	926,833
531,3	901,633
531,8	870,433
532,2	885,833
532,6	866,433
533,1	846,433
533,5	875,633
534	851,833
534,4	849,833
534,9	815,433
535,3	845,833
535,8	831,833
536,2	806,433
536,7	794,833
537,1	761,433
537,6	739,233
538	754,033
538,5	769,433
538,9	747,033
539,4	760,433
539,8	751,233
540,3	712,233
540,7	706,433
541,2	730,833
541,6	705,433
542,1	712,833
542,5	689,233
543	689,233
543,4	687,233
543,9	653,633
544,3	665,033
544,8	666,033
545,2	643,833
545,7	629,433
546,1	650,433
546,5	639,833
547	610,033
547,4	617,833
547,9	628,233
548,3	577,633
548,8	593,433
549,2	594,033
549,7	585,033
550,1	597,433
550,6	577,033
551	591,833
551,5	575,833
551,9	565,433
552,4	563,233
552,8	543,033
553,3	550,433
553,7	537,233
554,2	563,433
554,6	522,433
555,1	533,633
555,5	518,233
555,9	507,833
556,4	524,433
556,8	509,033
557,3	520,433
557,7	529,633
558,2	500,833
558,6	506,833
559,1	467,433
559,5	495,833
560	498,033
560,4	494,633
560,9	452,433
561,3	462,033
561,8	472,833
562,2	486,433
562,7	486,833
563,1	496,033
563,6	470,233
564	436,833
564,4	465,233
564,9	464,633
565,3	448,233
565,8	447,633
566,2	457,433
566,7	469,433
567,1	433,633
567,6	448,033
568	446,833
568,5	438,433
568,9	434,433
569,4	430,033
569,8	392,433
570,3	396,433
570,7	424,833
571,1	429,433
571,6	413,633
572	406,833
572,5	398,433
572,9	408,833
573,4	402,633
573,8	370,833
574,3	390,033
574,7	406,233
575,2	387,833
575,6	372,033
576,1	408,633
576,5	390,433
576,9	376,833
577,4	334,033
577,8	375,233
578,3	380,633
578,7	341,833
579,2	399,833
579,6	351,033
580,1	355,033
580,5	362,433
581	340,233
581,4	345,833
581,9	348,633
582,3	347,833
582,7	353,633
583,2	297,633
583,6	330,833
584,1	348,833
584,5	339,433
585	311,233
585,4	336,033
585,9	365,233
586,3	350,433
586,8	320,033
587,2	309,633
587,6	338,233
588,1	326,233
588,5	351,433
589	287,633
589,4	280,233
589,9	325,233
590,3	282,233
590,8	307,233
591,2	293,633
591,7	324,233
592,1	299,033
592,5	293,033
593	287,433
593,4	326,233
593,9	283,833
594,3	289,233
594,8	306,633
595,2	310,433
595,7	300,633
596,1	313,633
596,6	306,833
597	283,033
597,4	277,633
597,9	338,233
598,3	275,633
598,8	282,433
599,2	274,833
599,7	270,233
600,1	307,033
600,6	272,833
601	285,233
601,4	312,433
601,9	255,833
602,3	274,433
602,8	275,833
603,2	285,433
603,7	245,433
604,1	255,033
604,6	263,833
605	253,633
605,4	236,833
605,9	261,033
606,3	266,433
606,8	258,233
607,2	240,033
607,7	248,833
608,1	285,433
608,6	258,433
609	241,633
609,4	235,833
609,9	199,833
610,3	253,833
610,8	229,433
611,2	211,233
611,7	217,233
612,1	261,633
612,6	235,433
613	209,233
613,4	260,033
613,9	234,833
614,3	235,033
614,8	225,833
615,2	214,433
615,7	198,833
616,1	217,833
616,6	196,033
617	227,433
617,4	209,033
617,9	214,433
618,3	235,833
618,8	185,233
619,2	206,633
619,7	207,233
620,1	214,033
620,5	224,633
621	197,433
621,4	219,633
621,9	191,433
622,3	195,233
622,8	203,433
623,2	207,233
623,6	168,433
624,1	200,833
624,5	186,433
625	204,633
625,4	195,033
625,9	219,633
626,3	194,233
626,8	192,033
627,2	188,233
627,6	214,433
628,1	207,633
628,5	162,633
629	203,633
629,4	182,633
629,9	209,433
630,3	221,033
630,7	166,833
631,2	221,033
631,6	190,233
632,1	129,633
632,5	174,633
633	187,433
633,4	210,433
633,8	171,633
634,3	207,433
634,7	184,033
635,2	177,433
635,6	164,233
636,1	189,033
636,5	151,233
636,9	171,433
637,4	183,433
637,8	170,633
638,3	177,633
638,7	142,433
639,2	161,633
639,6	169,633
640	168,633
640,5	139,433
640,9	151,033
641,4	159,033
641,8	181,633
642,2	115,033
642,7	166,033
643,1	139,233
643,6	173,633
644	143,833
644,5	132,633
644,9	177,633
645,3	177,433
645,8	132,433
646,2	137,833
646,7	138,833
647,1	134,233
647,6	135,033
648	148,633
648,4	146,833
648,9	124,433
649,3	136,433
649,8	117,033
650,2	120,433
650,6	128,433
651,1	147,833
651,5	158,033
652	159,633
652,4	125,233
652,9	131,233
653,3	149,233
653,7	157,233
654,2	164,233
654,6	136,633
655,1	143,833
655,5	150,433
655,9	167,433
656,4	128,633
656,8	130,433
657,3	120,033
657,7	148,633
658,2	91,833
658,6	115,233
659	132,033
659,5	134,033
659,9	119,233
660,4	135,433
660,8	84,233
661,2	137,433
661,7	146,233
662,1	127,233
662,6	110,233
663	133,033
663,4	130,633
663,9	164,033
664,3	148,433
664,8	127,833
665,2	130,433
665,6	122,233
666,1	100,833
666,5	148,833
667	93,033
667,4	101,433
667,9	107,833
668,3	107,833
668,7	138,033
669,2	129,633
669,6	125,033
670,1	90,833
670,5	70,833
670,9	92,433
671,4	125,433
671,8	98,433
672,3	98,833
672,7	106,833
673,1	102,633
673,6	93,033
674	97,633
674,5	101,033
674,9	116,233
675,3	125,433
675,8	115,433
676,2	100,633
676,7	132,833
677,1	104,033
677,5	106,433
678	111,633
678,4	102,433
678,9	111,233
679,3	98,633
679,7	83,033
680,2	115,233
680,6	130,433
681,1	126,033
681,5	106,233
681,9	106,433
682,4	99,033
682,8	109,033
683,3	79,433
683,7	95,033
684,1	89,233
684,6	90,433
685	85,033
685,5	111,633
685,9	81,233
686,3	80,833
686,8	85,833
687,2	68,233
687,7	77,433
688,1	85,033
688,5	107,033
689	92,633
689,4	102,033
689,9	60,633
690,3	80,833
690,7	89,833
691,2	65,233
691,6	104,433
692	115,033
692,5	58,033
692,9	81,633
693,4	78,633
693,8	76,233
694,2	77,433
694,7	81,833
695,1	87,033
695,6	93,033
696	53,833
696,4	86,233
696,9	102,433
697,3	69,833
697,8	49,833
698,2	83,633
698,6	75,433
699,1	77,033
699,5	82,233
699,9	80,833
700,4	88,433
700,8	85,233
701,3	71,633
701,7	54,833
702,1	77,033
702,6	91,633
703	64,033
703,5	61,433
703,9	62,833
704,3	89,433
704,8	104,233
705,2	91,833
705,6	68,233
706,1	53,833
706,5	96,033
707	77,633
707,4	82,233
707,8	59,033
708,3	70,633
708,7	70,833
709,2	38,833
709,6	120,033
710	92,633
710,5	50,633
710,9	58,633
711,3	83,633
711,8	70,033
712,2	70,633
712,7	73,633
713,1	82,033
713,5	69,033
714	77,233
714,4	106,033
714,8	59,833
715,3	63,633
715,7	92,033
716,2	50,433
716,6	68,833
717	72,633
717,5	58,633
717,9	44,633
718,3	78,833
718,8	43,433
719,2	81,633
719,7	37,633
720,1	67,033
720,5	67,233
721	68,633
721,4	81,433
721,8	60,433
722,3	65,033
722,7	69,833
723,2	43,233
723,6	12,033
724	82,033
724,5	45,033
724,9	55,033
725,3	63,233
725,8	65,233
726,2	35,633
726,7	70,233
727,1	43,833
727,5	66,033
728	43,433
728,4	71,433
728,8	44,433
729,3	53,833
729,7	60,433
730,1	39,633
730,6	65,033
731	62,833
731,5	56,033
731,9	63,233
732,3	39,033
732,8	58,233
733,2	64,433
733,6	73,633
734,1	62,033
734,5	70,833
734,9	27,233
735,4	46,033
735,8	70,233
736,3	21,433
736,7	61,833
737,1	89,033
737,6	48,833
738	34,233
738,4	52,033
738,9	64,433
739,3	89,833
739,7	60,833
740,2	52,033
740,6	65,633
741,1	43,633
741,5	46,033
741,9	45,233
742,4	42,833
742,8	37,033
743,2	60,033
743,7	26,233
744,1	46,833
744,5	40,233
745	82,433
745,4	50,033
745,8	75,433
746,3	50,833
746,7	32,433
747,2	23,833
747,6	27,233
748	51,833
748,5	46,633
748,9	48,033
749,3	18,033
749,8	59,833
750,2	25,633
750,6	38,633
751,1	50,633
751,5	28,033
751,9	31,633
752,4	26,233
752,8	37,433
753,3	33,233
753,7	37,433
754,1	55,633
754,6	65,233
755	45,633
755,4	50,433
755,9	55,633
756,3	16,833
756,7	37,233
757,2	46,633
757,6	50,633
758	57,433
758,5	29,833
758,9	52,433
759,3	34,033
759,8	35,233
760,2	20,433
760,6	30,233
761,1	34,833
761,5	49,433
761,9	52,233
762,4	24,233
762,8	41,433
763,3	35,433
763,7	48,033
764,1	45,433
764,6	36,633
765	14,233
765,4	46,833
765,9	24,033
766,3	22,233
766,7	53,033
767,2	75,233
767,6	29,633
768	54,033
768,5	39,833
768,9	34,633
769,3	39,233
769,8	53,433
770,2	0,833
770,6	28,833
771,1	67,633
771,5	31,833
771,9	33,633
772,4	58,833
772,8	42,633
773,2	32,433
773,7	40,433
774,1	27,833
774,5	43,433
775	48,233
775,4	12,233
775,8	53,433
776,3	39,033
776,7	33,433
777,1	7,833
777,6	38,033
778	-3,367
778,4	51,833
778,9	46,233
779,3	53,433
779,7	48,233
780,2	36,633
780,6	0,833
781	53,233
781,5	27,633
781,9	32,233
782,3	50,833
782,8	71,633
783,2	31,233
783,6	14,033
784,1	40,633
784,5	23,233
784,9	23,833
785,4	53,233
785,8	7,833
786,2	35,233
786,7	-0,367
787,1	37,433
787,5	15,433
788	-1,367
788,4	32,233
788,8	50,433
789,3	32,833
789,7	49,433
790,1	48,833
790,6	26,033
791	32,033
791,4	44,833
791,9	64,633
792,3	37,033
792,7	31,433
793,2	53,033
793,6	19,233
794	37,233
794,5	-0,567
794,9	11,633
795,3	42,833
795,8	13,833
796,2	16,033
796,6	37,033
797,1	30,233
797,5	48,433
797,9	26,433
798,4	24,433
798,8	1,033
799,2	41,233
799,7	45,033
800,1	19,633
800,5	42,233
801	21,433
801,4	24,833
801,8	12,833
802,2	14,233
802,7	0,633
803,1	19,633
803,5	7,633
804	34,033
804,4	12,833
804,8	21,833
805,3	26,433
805,7	27,433
806,1	25,833
806,6	9,233
807	0,833
807,4	18,433
807,9	29,833
808,3	26,633
808,7	40,233
809,2	33,433
809,6	35,433
810	18,433
810,4	25,433
810,9	27,433
811,3	-28,967
811,7	38,433
812,2	27,433
812,6	12,033
813	26,833
813,5	3,633
813,9	37,233
814,3	7,033
814,8	34,633
815,2	40,433
815,6	5,633
816,1	25,033
816,5	16,433
816,9	14,433
817,3	10,233
817,8	43,233
818,2	24,233
818,6	28,633
819,1	38,433
819,5	31,433
819,9	53,033
820,4	-9,167
820,8	9,433
821,2	36,633
821,7	39,633
822,1	32,233
822,5	25,033
822,9	26,633
823,4	6,033
823,8	51,633
824,2	-5,367
824,7	18,033
825,1	6,233
825,5	3,633
826	19,233
826,4	13,833
826,8	11,433
827,3	9,433
827,7	9,433
828,1	22,033
828,5	20,233
829	5,033
829,4	0,233
829,8	14,833
830,3	36,633
830,7	0,033
831,1	-6,967
831,6	21,233
832	12,233
832,4	20,233
832,8	19,233
833,3	38,033
833,7	32,833
834,1	10,633
834,6	-21,567
835	31,833
835,4	-6,967
835,8	29,633
836,3	22,833
836,7	3,833
837,1	28,033
837,6	2,633
838	3,433
838,4	38,033
838,9	-9,567
839,3	38,833
839,7	11,233
840,1	-7,767
840,6	23,033
841	26,833
841,4	29,833
841,9	12,633
842,3	32,433
842,7	-2,567
843,1	20,033
843,6	33,033
844	9,433
844,4	16,433
844,9	12,233
845,3	11,033
845,7	21,833
846,2	30,433
846,6	47,833
847	26,033
847,4	20,633
847,9	25,633
848,3	25,633
848,7	33,033
849,2	32,033
849,6	-11,167
850	5,633
850,4	3,433
850,9	-2,367
851,3	19,233
851,7	12,033
852,2	17,233
852,6	5,233
853	19,033
853,4	7,233
853,9	8,433
854,3	28,433
854,7	14,833
855,2	23,233
855,6	7,433
856	-20,167
856,4	0,233
856,9	-4,567
857,3	4,633
857,7	51,433
858,2	23,833
858,6	-2,967
859	29,033
859,4	4,033
859,9	25,833
860,3	-15,567
860,7	25,833
861,1	37,633
861,6	16,633
862	-6,367
862,4	-3,167
862,9	4,633
863,3	12,833
863,7	4,033
864,1	21,433
864,6	13,033
865	5,633
865,4	39,233
865,9	24,033
866,3	19,233
866,7	6,633
867,1	10,233
867,6	-6,567
868	6,433
868,4	26,433
868,8	-1,367
869,3	29,233
869,7	0,833
870,1	-6,167
870,6	30,833
871	23,633
871,4	51,433
871,8	2,233
872,3	173,433
872,7	23,833
873,1	15,433
873,5	3,833
874	38,233
874,4	-3,767
874,8	11,233
875,3	17,033
875,7	-9,767
876,1	29,033
876,5	28,433
877	-1,367
877,4	10,233
877,8	6,033
878,2	16,633
878,7	28,033
879,1	-27,567
879,5	-25,367
879,9	22,233
880,4	5,433
880,8	-15,167
881,2	-2,367
881,7	16,433
882,1	12,833
882,5	-6,367
882,9	22,833
883,4	31,433
883,8	26,633
884,2	-8,767
884,6	12,233
885,1	15,233
885,5	-26,767
885,9	55,833
886,3	15,233
886,8	18,233
887,2	10,833
887,6	25,833
888	31,633
888,5	16,633
888,9	-8,767
889,3	-2,367
889,8	14,633
890,2	37,433
890,6	4,433
891	41,033
891,5	21,633
891,9	-18,967
892,3	21,833
892,7	-5,167
893,2	29,233
893,6	-5,367
894	31,233
894,4	34,433
894,9	5,433
895,3	29,233
895,7	3,833
896,1	-11,567
896,6	11,633
897	4,633
897,4	-20,967
897,8	5,633
898,3	3,233
898,7	10,233
899,1	5,633
899,5	-7,567
900	17,833
900,4	35,433
900,8	-5,367
901,2	20,833
901,7	11,233
902,1	-6,967
902,5	4,233
902,9	6,233
903,4	21,033
903,8	-5,967
904,2	-4,167
904,6	-12,967
905,1	-0,767
905,5	9,633
905,9	14,033
906,3	13,033
906,8	4,833
907,2	0,033
907,6	-14,567
908	6,033
908,5	3,433
908,9	15,033
909,3	31,233
909,7	29,833
910,2	13,833
910,6	-9,767
911	22,033
911,4	4,233
911,9	-4,367
912,3	-8,567
912,7	45,433
913,1	16,033
913,6	5,433
914	1,433
914,4	-16,967
914,8	10,633
915,3	3,433
915,7	-4,767
916,1	11,633
916,5	5,033
916,9	29,233
917,4	20,833
917,8	-20,967
918,2	26,033
918,6	4,633
919,1	-1,767
919,5	-10,367
919,9	25,833
920,3	0,633
920,8	-8,167
921,2	5,033
921,6	-2,167
922	-5,767
922,5	-10,367
922,9	19,033
923,3	-11,567
923,7	4,033
924,2	16,433
924,6	2,433
925	-34,367
925,4	-3,167
925,8	25,633
926,3	25,833
926,7	14,633
927,1	-15,367
927,5	26,633
928	-32,767
928,4	24,433
928,8	-14,567
929,2	21,833
929,7	14,233
930,1	-11,767
930,5	0,833
930,9	-0,767
931,3	2,833
931,8	8,833
932,2	30,633
932,6	-13,167
933	20,433
933,5	8,033
933,9	23,433
934,3	-13,167
934,7	25,033
935,2	29,433
935,6	5,033
936	36,233
936,4	8,233
936,8	-13,167
937,3	-4,967
937,7	25,833
938,1	21,833
938,5	-9,367
939	20,833
939,4	-14,567
939,8	6,433
940,2	-6,167
940,6	-3,967
941,1	-3,967
941,5	8,233
941,9	3,633
942,3	7,033
942,8	0,833
943,2	13,833
943,6	2,633
944	-1,767
944,4	0,833
944,9	18,633
945,3	-24,767
945,7	-0,167
946,1	18,433
946,6	-2,367
947	36,633
947,4	1,833
947,8	0,633
948,2	-0,367
948,7	8,833
949,1	10,233
949,5	-16,767
949,9	-5,967
950,3	-6,367
950,8	3,433
951,2	28,033
951,6	0,833
952	-4,767
952,5	29,033
952,9	-4,767
953,3	10,233
953,7	37,633
954,1	3,033
954,6	-21,367
955	31,433
955,4	22,033
955,8	9,833
956,2	-6,167
956,7	4,833
957,1	8,833
957,5	8,433
957,9	-0,167
958,3	-21,767
958,8	-12,367
959,2	-7,967
959,6	1,833
960	17,833
960,5	12,633
960,9	6,633
961,3	4,033
961,7	-7,367
962,1	7,833
962,6	7,633
963	5,033
963,4	5,833
963,8	16,033
964,2	0,833
964,7	-16,767
965,1	37,833
965,5	-10,767
965,9	-9,967
966,3	14,233
966,8	27,233
967,2	-4,567
967,6	-8,367
968	6,233
968,4	-7,567
968,9	18,833
969,3	2,233
969,7	10,433
970,1	15,633
970,5	6,433
971	1,633
971,4	33,833
971,8	30,033
972,2	-5,367
972,6	-14,567
973,1	34,233
973,5	3,233
973,9	-4,567
974,3	11,033
974,7	-24,367
975,2	6,633
975,6	-3,567
976	1,033
976,4	14,633
976,8	-26,167
977,3	-3,967
977,7	-9,567
978,1	-16,967
978,5	37,833
978,9	6,233
979,4	-2,767
979,8	17,833
980,2	8,633
980,6	9,833
981	-8,967
981,5	-3,567
981,9	16,433
982,3	8,833
982,7	26,633
983,1	-19,967
983,6	20,633
984	16,233
984,4	12,233
984,8	19,033
985,2	-14,967
985,6	14,633
986,1	2,233
986,5	-13,767
986,9	-7,967
987,3	-26,967
987,7	8,633
988,2	1,233
988,6	9,033
989	26,233
989,4	2,633
989,8	27,433
990,3	-16,567
990,7	19,833
991,1	3,233
991,5	-11,367
991,9	24,433
992,3	-12,567
992,8	29,633
993,2	11,633
993,6	-1,967
994	-9,367
994,4	8,433
994,9	7,233
995,3	6,633
995,7	-16,567
996,1	5,833
996,5	-1,167
996,9	8,633
997,4	17,633
997,8	13,633
998,2	-39,967
998,6	4,033
999	11,833
999,5	25,833
999,9	-25,767
1000,3	-0,567
1000,7	-0,367
1001,1	-5,367
1001,5	-4,167
1002	-5,167
1002,4	-1,767
1002,8	-5,967
1003,2	-1,167
1003,6	-4,167
1004	-9,367
1004,5	-25,367
1004,9	-1,167
1005,3	-3,367
1005,7	4,633
1006,1	-4,767
1006,6	-13,767
1007	24,633
1007,4	29,633
1007,8	12,233
1008,2	11,033
1008,6	16,633
1009,1	14,033
1009,5	-5,767
1009,9	2,233
1010,3	-26,967
1010,7	12,033
1011,1	2,033
1011,6	25,033
1012	-4,567
1012,4	-16,567
1012,8	20,233
1013,2	22,433
1013,6	-1,967
1014,1	-4,767
1014,5	0,033
1014,9	-4,167
1015,3	5,433
1015,7	-22,367
1016,1	-5,167
1016,6	15,233
1017	-1,167
1017,4	11,433
1017,8	-1,167
1018,2	-2,567
1018,6	-7,167
1019,1	12,233
1019,5	-6,967
1019,9	4,633
1020,3	21,033
1020,7	29,233
1021,1	-4,167
1021,6	-4,367
1022	32,633
1022,4	11,433
1022,8	14,433
1023,2	1,033
1023,6	-17,567
1024,1	26,833
1024,5	-36,167
1024,9	-8,167
1025,3	-9,767
1025,7	-7,367
1026,1	8,033
1026,6	-11,367
1027	-1,967
1027,4	13,433
1027,8	56,833
1028,2	-20,767
1028,6	-12,367
1029	12,833
1029,5	21,033
1029,9	23,233
1030,3	12,433
1030,7	17,833
1031,1	-2,167
1031,5	-4,767
1032	14,633
1032,4	-2,967
1032,8	5,433
1033,2	-12,967
1033,6	22,433
1034	-13,567
1034,4	16,833
1034,9	14,633
1035,3	-19,367
1035,7	6,033
1036,1	-5,767
1036,5	-32,767
1036,9	-23,567
1037,4	27,233
1037,8	21,633
1038,2	26,033
1038,6	1,633
1039	-4,767
1039,4	9,833
1039,8	18,033
1040,3	-0,567
1040,7	-5,967
1041,1	1,033
1041,5	27,233
1041,9	7,033
1042,3	32,433
1042,7	-1,967
1043,2	16,433
1043,6	3,833
1044	11,233
1044,4	-20,967
1044,8	-5,967
1045,2	7,033
1045,6	-21,567
1046,1	14,233
1046,5	27,033
1046,9	26,033
1047,3	20,833
1047,7	15,033
1048,1	18,233
1048,5	-10,767
1049	20,433
1049,4	-18,567
1049,8	5,833
1050,2	-28,367
1050,6	21,433
1051	6,033
1051,4	5,033
1051,9	-44,767
1052,3	26,833
1052,7	1,233
1053,1	-8,167
1053,5	-5,967
1053,9	16,033
1054,3	38,633
1054,8	-7,167
1055,2	12,833
1055,6	-27,567
1056	-11,167
1056,4	28,233
1056,8	23,033
1057,2	8,633
1057,6	1,033
1058,1	-12,167
1058,5	0,033
1058,9	-6,567
1059,3	-1,167
1059,7	4,633
1060,1	20,633
1060,5	-17,567
1061	-26,167
1061,4	-6,767
1061,8	20,433
1062,2	-18,567
1062,6	44,633
1063	-9,767
1063,4	20,633
1063,8	-36,967
1064,3	-4,967
1064,7	-1,767
1065,1	-7,167
1065,5	0,633
1065,9	-8,567
1066,3	-21,767
1066,7	-8,167
1067,1	4,633
1067,6	18,233
1068	3,033
1068,4	-8,367
1068,8	-28,567
1069,2	10,033
1069,6	-4,767
1070	9,833
1070,4	-18,167
1070,9	-1,567
1071,3	-4,767
1071,7	-22,967
1072,1	27,433
1072,5	-3,767
1072,9	-17,967
1073,3	-22,367
1073,7	19,233
1074,2	-6,967
1074,6	19,833
1075	0,233
1075,4	4,833
1075,8	19,433
1076,2	4,633
1076,6	18,433
1077	-1,167
1077,5	13,833
1077,9	-12,767
1078,3	7,833
1078,7	7,033
1079,1	17,033
1079,5	3,233
1079,9	39,033
1080,3	-7,367
1080,7	-5,167
1081,2	2,833
1081,6	-0,367
1082	-3,167
1082,4	-7,967
1082,8	-6,167
1083,2	10,233
1083,6	36,833
1084	9,433
1084,5	19,833
1084,9	-21,967
1085,3	12,833
1085,7	2,433
1086,1	-0,767
1086,5	16,833
1086,9	11,833
1087,3	-22,567
1087,7	3,233
1088,2	-2,767
1088,6	1,633
1089	2,233
1089,4	10,833
1089,8	-11,767
1090,2	-0,567
1090,6	10,433
1091	5,033
1091,4	1,433
1091,9	-24,967
1092,3	13,633
1092,7	23,633
1093,1	-42,967
1093,5	10,833
1093,9	7,033
1094,3	-8,167
1094,7	12,633
1095,1	-4,167
1095,5	-3,967
1096	-22,167
1096,4	19,633
1096,8	20,833
1097,2	-21,567
1097,6	35,433
1098	8,833
1098,4	26,433
1098,8	-2,967
1099,2	14,633
1099,6	5,633
1100,1	-5,767
1100,5	-35,367
1100,9	14,033
1101,3	1,633
1101,7	2,433
1102,1	-9,167
1102,5	3,233
1102,9	-16,767
1103,3	1,033
1103,7	-0,367
1104,2	24,033
1104,6	-11,967
1105	10,233
1105,4	-5,567
1105,8	3,233
1106,2	12,633
1106,6	-2,767
1107	0,033
1107,4	1,433
1107,8	-1,367
1108,3	-0,167
