Data from Subt2_00004.txt Node
Date: Wed Aug 02 18:52:41 MSK 2023
User: vat
Spectrometer: MAYP114033
Trigger mode: 0
Integration Time (sec): 7,000000E-1
Scans to average: 5
Electric dark correction enabled: true
Nonlinearity correction enabled: false
Boxcar width: 0
XAxis mode: Wavelengths
Number of Pixels in Spectrum: 2068
>>>>>Begin Spectral Data<<<<<
199,4	0,767
199,9	-1,433
200,4	-3,633
200,8	1,167
201,3	9,567
201,8	14,567
202,2	-4,433
202,7	-7,233
203,2	8,167
203,6	15,567
204,1	1,367
204,6	-8,633
205	-2,633
205,5	7,567
206	-16,633
206,4	16,167
206,9	7,767
207,4	-1,833
207,8	4,767
208,3	6,967
208,8	-23,833
209,2	11,767
209,7	14,367
210,2	7,367
210,6	15,367
211,1	1,967
211,5	-28,433
212	20,167
212,5	-9,233
212,9	-4,033
213,4	-0,233
213,9	-24,833
214,3	-4,433
214,8	32,167
215,3	10,367
215,7	13,967
216,2	-11,633
216,7	46,367
217,1	-17,833
217,6	-6,233
218,1	19,167
218,5	-29,033
219	34,367
219,5	-12,633
219,9	12,567
220,4	2,967
220,9	11,367
221,3	3,167
221,8	-12,233
222,3	-23,033
222,7	1,567
223,2	10,567
223,6	-26,033
224,1	-4,433
224,6	-27,633
225	-4,033
225,5	43,167
226	9,967
226,4	-7,433
226,9	12,367
227,4	10,967
227,8	-9,633
228,3	-5,233
228,8	40,567
229,2	7,367
229,7	15,567
230,2	33,567
230,6	-1,433
231,1	23,567
231,5	-14,433
232	-19,633
232,5	4,567
232,9	-42,633
233,4	8,567
233,9	-2,233
234,3	-7,633
234,8	16,167
235,3	27,767
235,7	-14,833
236,2	27,367
236,7	-39,233
237,1	14,367
237,6	-2,433
238,1	-2,633
238,5	23,567
239	25,767
239,4	-26,033
239,9	-13,033
240,4	11,567
240,8	39,167
241,3	15,967
241,8	9,167
242,2	8,767
242,7	-3,833
243,2	17,767
243,6	-0,433
244,1	16,567
244,6	13,967
245	-14,833
245,5	-21,233
245,9	39,367
246,4	28,167
246,9	-13,033
247,3	43,967
247,8	19,767
248,3	24,567
248,7	-0,033
249,2	9,367
249,7	-5,433
250,1	39,767
250,6	-12,233
251	15,767
251,5	1,567
252	32,767
252,4	24,967
252,9	19,367
253,4	10,167
253,8	-6,233
254,3	26,367
254,8	-19,233
255,2	30,567
255,7	6,767
256,1	-4,833
256,6	17,567
257,1	1,967
257,5	12,967
258	1,767
258,5	20,367
258,9	20,567
259,4	29,367
259,9	-15,633
260,3	50,367
260,8	21,567
261,2	6,567
261,7	31,167
262,2	15,967
262,6	5,367
263,1	16,167
263,6	9,167
264	11,567
264,5	-7,233
264,9	0,767
265,4	8,367
265,9	10,567
266,3	17,367
266,8	23,967
267,3	8,767
267,7	7,567
268,2	-3,833
268,7	28,167
269,1	1,767
269,6	24,567
270	16,767
270,5	-2,233
271	5,767
271,4	29,367
271,9	26,967
272,4	9,367
272,8	12,367
273,3	2,767
273,7	26,167
274,2	15,367
274,7	27,367
275,1	22,167
275,6	-10,033
276,1	8,367
276,5	2,167
277	18,367
277,4	-10,233
277,9	13,967
278,4	-4,633
278,8	18,567
279,3	-4,433
279,8	9,167
280,2	-14,433
280,7	9,167
281,1	0,567
281,6	23,167
282,1	3,167
282,5	14,167
283	-11,633
283,4	-5,033
283,9	9,967
284,4	-5,433
284,8	39,767
285,3	1,567
285,8	22,967
286,2	4,967
286,7	7,967
287,1	-7,033
287,6	-18,833
288,1	4,167
288,5	15,367
289	13,167
289,5	-21,433
289,9	-1,033
290,4	12,967
290,8	11,167
291,3	23,567
291,8	2,967
292,2	-6,433
292,7	3,767
293,1	13,567
293,6	-9,233
294,1	-10,233
294,5	3,767
295	5,767
295,5	19,767
295,9	4,367
296,4	45,767
296,8	3,767
297,3	-10,033
297,8	-4,033
298,2	0,767
298,7	2,767
299,1	51,367
299,6	-7,033
300,1	-16,633
300,5	30,967
301	26,567
301,5	-3,833
301,9	8,567
302,4	37,767
302,8	0,967
303,3	-28,633
303,8	5,967
304,2	20,967
304,7	30,767
305,1	16,567
305,6	-5,833
306,1	-5,433
306,5	13,767
307	-5,033
307,4	-1,033
307,9	15,167
308,4	6,967
308,8	11,367
309,3	-5,233
309,8	16,167
310,2	7,767
310,7	-4,433
311,1	-6,033
311,6	29,967
312,1	24,367
312,5	16,967
313	30,167
313,4	38,767
313,9	-5,633
314,4	9,967
314,8	19,767
315,3	10,567
315,7	-3,233
316,2	11,367
316,7	-21,633
317,1	5,967
317,6	12,367
318	31,967
318,5	5,367
319	21,767
319,4	40,967
319,9	-9,233
320,3	0,767
320,8	-8,633
321,3	-2,033
321,7	9,767
322,2	-18,433
322,6	8,967
323,1	5,167
323,6	16,167
324	25,567
324,5	25,767
324,9	-0,033
325,4	14,367
325,9	-13,033
326,3	3,967
326,8	11,567
327,2	-13,033
327,7	11,567
328,2	18,367
328,6	11,967
329,1	-19,833
329,5	-9,833
330	34,967
330,5	40,967
330,9	13,767
331,4	-11,033
331,8	3,767
332,3	13,767
332,8	9,167
333,2	-4,833
333,7	-10,433
334,1	-7,233
334,6	21,367
335,1	-32,833
335,5	24,567
336	1,567
336,4	2,567
336,9	26,167
337,4	-9,033
337,8	20,767
338,3	10,967
338,7	16,167
339,2	-0,833
339,7	26,967
340,1	2,767
340,6	51,767
341	1,567
341,5	0,367
342	25,167
342,4	11,167
342,9	26,567
343,3	-2,033
343,8	20,967
344,2	-4,433
344,7	3,567
345,2	8,367
345,6	-13,633
346,1	16,367
346,5	14,567
347	8,167
347,5	-23,833
347,9	28,167
348,4	-10,233
348,8	9,367
349,3	26,567
349,8	18,367
350,2	25,967
350,7	20,967
351,1	-40,233
351,6	31,567
352	-1,233
352,5	15,967
353	-13,033
353,4	-0,833
353,9	14,567
354,3	-1,233
354,8	45,567
355,3	14,967
355,7	41,367
356,2	19,167
356,6	39,167
357,1	34,567
357,5	46,167
358	81,367
358,5	68,567
358,9	70,167
359,4	78,567
359,8	97,767
360,3	109,767
360,8	140,767
361,2	154,167
361,7	182,167
362,1	188,567
362,6	210,367
363	253,767
363,5	296,567
364	297,967
364,4	328,767
364,9	349,567
365,3	393,167
365,8	435,567
366,3	485,767
366,7	487,567
367,2	537,167
367,6	521,767
368,1	534,567
368,5	542,767
369	574,767
369,5	583,767
369,9	555,567
370,4	549,767
370,8	532,167
371,3	501,367
371,7	508,767
372,2	459,167
372,7	446,967
373,1	467,967
373,6	397,767
374	391,967
374,5	384,767
374,9	366,367
375,4	306,367
375,9	285,567
376,3	246,167
376,8	258,167
377,2	220,567
377,7	237,367
378,2	167,367
378,6	174,967
379,1	142,767
379,5	137,167
380	141,567
380,4	102,567
380,9	112,567
381,4	99,767
381,8	81,967
382,3	107,367
382,7	52,767
383,2	56,567
383,6	106,767
384,1	67,967
384,6	67,767
385	22,967
385,5	68,967
385,9	77,367
386,4	35,367
386,8	32,567
387,3	47,167
387,7	35,567
388,2	47,567
388,7	40,967
389,1	45,767
389,6	45,967
390	36,567
390,5	26,367
390,9	-7,433
391,4	50,767
391,9	48,967
392,3	15,767
392,8	12,967
393,2	19,567
393,7	38,767
394,1	18,367
394,6	33,567
395,1	35,767
395,5	4,167
396	22,567
396,4	11,567
396,9	21,967
397,3	18,167
397,8	13,767
398,2	36,567
398,7	9,367
399,2	2,367
399,6	39,167
400,1	26,167
400,5	5,167
401	12,367
401,4	29,967
401,9	6,367
402,4	21,967
402,8	5,567
403,3	31,367
403,7	13,767
404,2	30,967
404,6	20,567
405,1	36,567
405,5	30,367
406	33,967
406,5	21,767
406,9	28,767
407,4	44,367
407,8	17,967
408,3	12,767
408,7	28,767
409,2	20,367
409,6	40,567
410,1	25,167
410,6	36,367
411	27,967
411,5	57,967
411,9	34,367
412,4	41,767
412,8	60,567
413,3	45,367
413,7	72,167
414,2	52,767
414,7	71,567
415,1	45,967
415,6	76,767
416	77,967
416,5	82,767
416,9	100,967
417,4	164,767
417,8	128,567
418,3	82,767
418,8	129,967
419,2	118,167
419,7	108,767
420,1	134,567
420,6	140,167
421	193,167
421,5	165,567
421,9	161,967
422,4	177,967
422,8	217,967
423,3	183,767
423,8	232,967
424,2	213,967
424,7	237,767
425,1	268,167
425,6	268,967
426	266,567
426,5	284,567
426,9	269,767
427,4	324,967
427,9	333,367
428,3	343,367
428,8	353,167
429,2	374,967
429,7	421,567
430,1	433,167
430,6	445,567
431	507,367
431,5	489,767
431,9	481,967
432,4	539,767
432,8	556,367
433,3	572,567
433,8	611,967
434,2	662,367
434,7	646,567
435,1	701,167
435,6	762,767
436	774,367
436,5	832,967
436,9	838,167
437,4	890,967
437,8	928,767
438,3	977,367
438,8	1006,167
439,2	1053,767
439,7	1119,567
440,1	1151,567
440,6	1202,767
441	1275,967
441,5	1303,367
441,9	1414,567
442,4	1387,167
442,8	1504,167
443,3	1524,567
443,7	1588,567
444,2	1667,767
444,7	1741,767
445,1	1789,767
445,6	1886,967
446	1944,167
446,5	2039,967
446,9	2102,767
447,4	2167,967
447,8	2275,367
448,3	2344,967
448,7	2425,967
449,2	2536,367
449,6	2604,167
450,1	2708,967
450,6	2784,967
451	2883,367
451,5	2953,567
451,9	3057,167
452,4	3145,567
452,8	3322,967
453,3	3383,167
453,7	3452,767
454,2	3599,167
454,6	3678,967
455,1	3762,567
455,5	3934,567
456	3985,367
456,4	4142,767
456,9	4229,567
457,3	4341,367
457,8	4474,967
458,3	4603,567
458,7	4744,967
459,2	4839,967
459,6	4941,367
460,1	5039,767
460,5	5161,967
461	5336,367
461,4	5415,567
461,9	5528,767
462,3	5669,367
462,8	5780,567
463,2	5880,367
463,7	6011,367
464,1	6176,367
464,6	6268,167
465	6392,767
465,5	6514,767
466	6624,567
466,4	6779,367
466,9	6872,967
467,3	7056,567
467,8	7113,767
468,2	7298,967
468,7	7431,567
469,1	7526,167
469,6	7626,567
470	7770,767
470,5	7819,167
470,9	7982,767
471,4	8029,567
471,8	8183,967
472,3	8334,167
472,7	8443,367
473,2	8422,167
473,6	8590,767
474,1	8681,167
474,5	8876,567
475	8951,367
475,4	9009,767
475,9	9139,567
476,4	9213,967
476,8	9291,967
477,3	9366,967
477,7	9443,767
478,2	9562,167
478,6	9608,167
479,1	9671,567
479,5	9781,567
480	9904,167
480,4	10016,967
480,9	9959,767
481,3	10034,967
481,8	10092,367
482,2	10104,967
482,7	10193,967
483,1	10303,767
483,6	10299,767
484	10354,767
484,5	10423,167
484,9	10387,567
485,4	10476,567
485,8	10501,167
486,3	10484,567
486,7	10543,167
487,2	10487,167
487,6	10603,567
488,1	10545,167
488,5	10655,367
489	10565,767
489,4	10576,367
489,9	10595,167
490,4	10567,967
490,8	10586,367
491,3	10546,167
491,7	10600,767
492,2	10594,167
492,6	10601,567
493,1	10508,167
493,5	10524,367
494	10450,767
494,4	10426,967
494,9	10444,167
495,3	10368,167
495,8	10360,967
496,2	10322,767
496,7	10233,967
497,1	10239,567
497,6	10186,767
498	10134,767
498,5	10136,167
498,9	10125,167
499,4	10026,967
499,8	9974,367
500,3	9918,967
500,7	9887,967
501,2	9797,567
501,6	9776,967
502,1	9723,967
502,5	9654,367
503	9590,967
503,4	9515,967
503,9	9518,767
504,3	9379,567
504,8	9362,967
505,2	9285,367
505,7	9297,967
506,1	9123,567
506,6	9065,767
507	9042,767
507,5	8974,967
507,9	8886,567
508,4	8801,567
508,8	8744,567
509,3	8720,967
509,7	8562,167
510,2	8518,967
510,6	8496,367
511,1	8345,167
511,5	8299,767
512	8205,767
512,4	8132,567
512,9	8056,367
513,3	8005,567
513,8	7884,567
514,2	7828,567
514,7	7746,167
515,1	7670,767
515,6	7630,767
516	7493,567
516,5	7485,767
516,9	7339,567
517,4	7303,167
517,8	7214,767
518,3	7134,367
518,7	7064,167
519,2	6992,767
519,6	6875,567
520,1	6814,967
520,5	6762,767
521	6694,567
521,4	6598,567
521,9	6476,367
522,3	6375,567
522,8	6362,367
523,2	6348,967
523,7	6188,567
524,1	6142,967
524,6	6111,167
525	6053,967
525,5	5941,767
525,9	5894,767
526,4	5830,567
526,8	5769,367
527,3	5696,567
527,7	5606,967
528,2	5596,167
528,6	5512,767
529,1	5416,767
529,5	5383,967
530	5335,967
530,4	5259,767
530,9	5200,767
531,3	5134,567
531,8	5070,767
532,2	4971,167
532,6	4977,567
533,1	4866,767
533,5	4836,367
534	4735,367
534,4	4717,367
534,9	4670,967
535,3	4644,567
535,8	4579,967
536,2	4532,567
536,7	4443,967
537,1	4413,367
537,6	4351,567
538	4355,767
538,5	4246,567
538,9	4220,567
539,4	4167,367
539,8	4153,567
540,3	4059,967
540,7	4008,967
541,2	4007,767
541,6	3954,567
542,1	3936,367
542,5	3833,767
543	3785,167
543,4	3762,367
543,9	3785,567
544,3	3724,167
544,8	3689,967
545,2	3616,167
545,7	3591,567
546,1	3519,567
546,5	3499,767
547	3449,367
547,4	3403,767
547,9	3349,567
548,3	3345,967
548,8	3324,167
549,2	3300,167
549,7	3244,367
550,1	3199,367
550,6	3186,767
551	3119,967
551,5	3094,167
551,9	3085,767
552,4	3080,167
552,8	3004,767
553,3	2988,367
553,7	2961,967
554,2	2933,167
554,6	2949,967
555,1	2904,167
555,5	2841,167
555,9	2789,767
556,4	2800,967
556,8	2792,567
557,3	2766,967
557,7	2693,967
558,2	2663,567
558,6	2624,367
559,1	2624,167
559,5	2608,367
560	2596,967
560,4	2601,967
560,9	2514,967
561,3	2516,567
561,8	2491,167
562,2	2465,967
562,7	2475,167
563,1	2422,767
563,6	2398,367
564	2382,967
564,4	2368,367
564,9	2359,967
565,3	2323,967
565,8	2307,167
566,2	2282,367
566,7	2288,367
567,1	2276,367
567,6	2244,167
568	2250,767
568,5	2194,367
568,9	2184,167
569,4	2145,767
569,8	2134,767
570,3	2119,967
570,7	2090,767
571,1	2065,967
571,6	2081,367
572	2078,967
572,5	2010,567
572,9	2030,967
573,4	2005,967
573,8	1976,767
574,3	1969,767
574,7	1995,967
575,2	1946,167
575,6	1924,167
576,1	1904,367
576,5	1903,767
576,9	1871,567
577,4	1865,967
577,8	1828,567
578,3	1874,767
578,7	1846,967
579,2	1803,767
579,6	1806,967
580,1	1796,967
580,5	1760,967
581	1742,367
581,4	1707,367
581,9	1718,567
582,3	1745,967
582,7	1721,367
583,2	1664,367
583,6	1674,367
584,1	1660,967
584,5	1642,167
585	1637,367
585,4	1619,767
585,9	1624,567
586,3	1573,167
586,8	1583,367
587,2	1586,767
587,6	1553,367
588,1	1546,767
588,5	1572,567
589	1501,967
589,4	1505,367
589,9	1517,967
590,3	1454,367
590,8	1492,967
591,2	1466,567
591,7	1456,767
592,1	1424,367
592,5	1436,967
593	1453,167
593,4	1413,367
593,9	1432,167
594,3	1416,167
594,8	1404,567
595,2	1410,767
595,7	1395,567
596,1	1350,967
596,6	1380,167
597	1364,967
597,4	1390,167
597,9	1350,767
598,3	1336,767
598,8	1295,167
599,2	1305,167
599,7	1307,967
600,1	1284,567
600,6	1288,367
601	1267,367
601,4	1256,367
601,9	1267,167
602,3	1239,767
602,8	1238,367
603,2	1254,567
603,7	1223,567
604,1	1246,967
604,6	1219,967
605	1215,367
605,4	1214,767
605,9	1202,367
606,3	1187,567
606,8	1189,367
607,2	1166,967
607,7	1131,767
608,1	1188,567
608,6	1141,367
609	1157,167
609,4	1139,167
609,9	1137,767
610,3	1141,967
610,8	1116,167
611,2	1138,167
611,7	1109,767
612,1	1095,367
612,6	1075,767
613	1097,767
613,4	1052,567
613,9	1076,367
614,3	1071,367
614,8	1054,967
615,2	1058,567
615,7	1029,167
616,1	1052,167
616,6	1046,167
617	1053,967
617,4	1035,767
617,9	1032,167
618,3	1010,367
618,8	989,967
619,2	979,767
619,7	1006,767
620,1	986,967
620,5	945,967
621	989,967
621,4	943,567
621,9	942,367
622,3	932,967
622,8	961,767
623,2	915,167
623,6	911,567
624,1	918,767
624,5	918,767
625	895,367
625,4	878,967
625,9	897,167
626,3	887,367
626,8	907,567
627,2	896,967
627,6	884,367
628,1	865,167
628,5	828,767
629	863,767
629,4	836,967
629,9	873,567
630,3	852,767
630,7	832,967
631,2	809,767
631,6	835,967
632,1	817,967
632,5	817,567
633	790,967
633,4	824,367
633,8	823,167
634,3	800,367
634,7	769,367
635,2	762,767
635,6	799,567
636,1	778,167
636,5	812,767
636,9	755,567
637,4	768,167
637,8	753,567
638,3	741,167
638,7	740,967
639,2	724,767
639,6	781,367
640	737,767
640,5	729,767
640,9	710,567
641,4	726,367
641,8	702,767
642,2	731,367
642,7	683,767
643,1	695,167
643,6	716,967
644	688,767
644,5	691,367
644,9	663,767
645,3	688,767
645,8	699,567
646,2	672,567
646,7	659,767
647,1	645,367
647,6	667,967
648	621,367
648,4	655,567
648,9	644,967
649,3	643,367
649,8	649,167
650,2	621,367
650,6	644,767
651,1	614,967
651,5	600,167
652	609,567
652,4	617,567
652,9	594,167
653,3	586,767
653,7	605,567
654,2	620,367
654,6	584,567
655,1	579,567
655,5	602,967
655,9	571,967
656,4	559,367
656,8	587,567
657,3	583,967
657,7	540,167
658,2	569,167
658,6	573,767
659	548,567
659,5	534,767
659,9	536,567
660,4	552,567
660,8	552,967
661,2	530,567
661,7	508,167
662,1	513,367
662,6	535,167
663	494,167
663,4	510,367
663,9	522,967
664,3	523,367
664,8	504,167
665,2	510,167
665,6	478,967
666,1	485,567
666,5	459,967
667	480,367
667,4	479,367
667,9	475,967
668,3	460,167
668,7	465,567
669,2	450,967
669,6	468,567
670,1	456,767
670,5	448,167
670,9	431,367
671,4	439,967
671,8	470,767
672,3	462,767
672,7	443,567
673,1	448,367
673,6	439,167
674	431,167
674,5	435,367
674,9	436,767
675,3	424,967
675,8	435,567
676,2	430,967
676,7	403,967
677,1	424,967
677,5	409,167
678	420,367
678,4	391,967
678,9	417,567
679,3	395,367
679,7	426,167
680,2	368,967
680,6	396,767
681,1	420,367
681,5	395,167
681,9	387,367
682,4	362,967
682,8	367,367
683,3	388,967
683,7	361,767
684,1	390,367
684,6	343,967
685	367,567
685,5	365,567
685,9	359,967
686,3	365,567
686,8	370,167
687,2	365,967
687,7	372,567
688,1	372,767
688,5	346,967
689	348,567
689,4	339,367
689,9	342,967
690,3	336,767
690,7	319,167
691,2	325,367
691,6	359,167
692	329,967
692,5	326,567
692,9	313,767
693,4	317,167
693,8	360,367
694,2	308,167
694,7	307,967
695,1	289,967
695,6	317,567
696	313,367
696,4	304,367
696,9	287,967
697,3	299,767
697,8	298,567
698,2	291,567
698,6	304,967
699,1	298,367
699,5	294,167
699,9	305,567
700,4	303,967
700,8	272,567
701,3	272,367
701,7	284,567
702,1	270,367
702,6	283,367
703	294,367
703,5	264,167
703,9	257,767
704,3	278,767
704,8	266,367
705,2	243,767
705,6	288,567
706,1	254,767
706,5	267,367
707	242,967
707,4	274,967
707,8	251,567
708,3	267,167
708,7	239,567
709,2	287,767
709,6	233,767
710	268,967
710,5	275,367
710,9	224,367
711,3	226,767
711,8	285,367
712,2	235,967
712,7	230,567
713,1	243,367
713,5	220,767
714	230,967
714,4	240,967
714,8	214,767
715,3	248,167
715,7	223,167
716,2	243,367
716,6	223,967
717	214,167
717,5	233,367
717,9	206,367
718,3	214,567
718,8	196,967
719,2	217,767
719,7	248,567
720,1	202,567
720,5	232,767
721	238,967
721,4	226,167
721,8	213,367
722,3	187,567
722,7	230,567
723,2	198,167
723,6	196,967
724	192,167
724,5	206,567
724,9	199,967
725,3	200,967
725,8	192,967
726,2	205,167
726,7	202,567
727,1	204,567
727,5	201,167
728	186,967
728,4	195,367
728,8	221,167
729,3	166,767
729,7	166,967
730,1	183,967
730,6	183,167
731	195,167
731,5	155,967
731,9	179,567
732,3	183,967
732,8	201,567
733,2	198,767
733,6	165,967
734,1	174,567
734,5	184,167
734,9	163,567
735,4	157,567
735,8	194,767
736,3	183,967
736,7	131,367
737,1	145,567
737,6	157,567
738	176,767
738,4	150,767
738,9	150,967
739,3	181,567
739,7	152,367
740,2	147,167
740,6	140,767
741,1	137,567
741,5	160,767
741,9	153,367
742,4	159,567
742,8	161,767
743,2	144,367
743,7	154,167
744,1	151,967
744,5	158,767
745	129,767
745,4	154,367
745,8	181,767
746,3	158,967
746,7	129,767
747,2	132,967
747,6	171,567
748	127,567
748,5	160,367
748,9	127,167
749,3	138,967
749,8	119,167
750,2	169,767
750,6	143,367
751,1	107,967
751,5	149,967
751,9	129,167
752,4	125,767
752,8	151,967
753,3	138,767
753,7	97,967
754,1	129,167
754,6	133,767
755	110,767
755,4	124,767
755,9	145,967
756,3	124,967
756,7	125,567
757,2	149,967
757,6	107,767
758	117,767
758,5	128,167
758,9	116,367
759,3	144,367
759,8	106,567
760,2	119,167
760,6	106,767
761,1	120,767
761,5	137,567
761,9	107,767
762,4	130,167
762,8	122,367
763,3	125,167
763,7	100,167
764,1	119,967
764,6	118,167
765	112,167
765,4	109,967
765,9	125,767
766,3	110,367
766,7	107,967
767,2	124,767
767,6	147,567
768	105,767
768,5	121,567
768,9	93,767
769,3	129,967
769,8	98,567
770,2	81,167
770,6	108,367
771,1	96,367
771,5	132,167
771,9	90,967
772,4	121,767
772,8	92,167
773,2	88,367
773,7	117,567
774,1	119,567
774,5	121,967
775	110,767
775,4	103,167
775,8	102,567
776,3	79,167
776,7	73,167
777,1	91,367
777,6	113,967
778	105,967
778,4	75,967
778,9	82,567
779,3	86,167
779,7	103,767
780,2	94,367
780,6	83,367
781	122,367
781,5	85,567
781,9	79,367
782,3	101,967
782,8	96,567
783,2	56,167
783,6	75,767
784,1	63,167
784,5	105,967
784,9	61,167
785,4	85,767
785,8	85,967
786,2	83,367
786,7	89,567
787,1	109,167
787,5	89,367
788	80,967
788,4	65,567
788,8	70,967
789,3	94,767
789,7	78,367
790,1	89,767
790,6	63,767
791	102,567
791,4	101,167
791,9	53,567
792,3	55,767
792,7	68,567
793,2	62,767
793,6	85,767
794	108,967
794,5	99,767
794,9	64,567
795,3	46,367
795,8	70,167
796,2	58,167
796,6	68,167
797,1	67,967
797,5	103,967
797,9	59,367
798,4	69,367
798,8	55,567
799,2	105,767
799,7	69,567
800,1	87,167
800,5	76,567
801	58,367
801,4	74,767
801,8	40,767
802,2	70,367
802,7	57,367
803,1	103,367
803,5	72,367
804	84,167
804,4	68,967
804,8	60,367
805,3	52,767
805,7	74,167
806,1	49,967
806,6	63,767
807	51,167
807,4	87,567
807,9	60,167
808,3	57,567
808,7	58,567
809,2	45,967
809,6	72,967
810	54,967
810,4	53,167
810,9	87,767
811,3	94,567
811,7	48,367
812,2	59,167
812,6	90,367
813	66,567
813,5	67,367
813,9	70,967
814,3	52,767
814,8	58,167
815,2	59,967
815,6	81,767
816,1	44,367
816,5	60,967
816,9	73,967
817,3	23,967
817,8	41,967
818,2	56,967
818,6	40,967
819,1	62,167
819,5	36,967
819,9	51,767
820,4	51,967
820,8	66,967
821,2	52,567
821,7	33,167
822,1	29,167
822,5	37,567
822,9	62,767
823,4	52,367
823,8	55,967
824,2	21,767
824,7	32,567
825,1	48,567
825,5	44,567
826	30,367
826,4	23,167
826,8	29,567
827,3	35,967
827,7	33,567
828,1	37,567
828,5	29,967
829	50,367
829,4	45,167
829,8	42,967
830,3	51,367
830,7	80,967
831,1	47,567
831,6	11,567
832	26,167
832,4	39,367
832,8	20,167
833,3	36,567
833,7	45,567
834,1	33,567
834,6	61,567
835	28,567
835,4	42,567
835,8	67,967
836,3	62,167
836,7	37,767
837,1	22,367
837,6	50,167
838	58,167
838,4	48,967
838,9	76,367
839,3	43,567
839,7	42,367
840,1	45,967
840,6	31,167
841	42,567
841,4	53,367
841,9	30,967
842,3	47,367
842,7	58,167
843,1	34,967
843,6	30,567
844	1,167
844,4	34,567
844,9	18,767
845,3	38,167
845,7	28,367
846,2	24,567
846,6	-0,433
847	25,967
847,4	27,567
847,9	36,567
848,3	33,767
848,7	-2,233
849,2	27,367
849,6	15,567
850	31,767
850,4	52,567
850,9	55,567
851,3	52,967
851,7	31,167
852,2	36,167
852,6	16,967
853	40,367
853,4	26,967
853,9	49,767
854,3	29,367
854,7	41,167
855,2	17,967
855,6	50,367
856	12,767
856,4	2,767
856,9	49,567
857,3	45,967
857,7	1,767
858,2	47,767
858,6	27,367
859	63,967
859,4	33,367
859,9	32,567
860,3	13,967
860,7	4,367
861,1	-2,433
861,6	2,167
862	44,167
862,4	5,767
862,9	39,367
863,3	30,167
863,7	10,167
864,1	31,167
864,6	50,367
865	20,367
865,4	23,767
865,9	15,567
866,3	15,367
866,7	30,567
867,1	30,167
867,6	21,567
868	36,367
868,4	42,767
868,8	-0,433
869,3	5,167
869,7	3,567
870,1	34,167
870,6	-19,233
871	35,367
871,4	4,167
871,8	9,767
872,3	32,967
872,7	2,567
873,1	4,967
873,5	27,367
874	12,967
874,4	13,167
874,8	11,967
875,3	46,767
875,7	16,367
876,1	37,767
876,5	16,367
877	12,967
877,4	9,567
877,8	18,767
878,2	23,367
878,7	32,767
879,1	22,167
879,5	51,767
879,9	11,167
880,4	24,767
880,8	45,767
881,2	45,567
881,7	29,567
882,1	37,767
882,5	29,767
882,9	26,767
883,4	19,767
883,8	34,367
884,2	52,367
884,6	-10,633
885,1	15,167
885,5	19,367
885,9	15,967
886,3	3,767
886,8	27,967
887,2	30,967
887,6	11,567
888	7,367
888,5	25,367
888,9	40,567
889,3	-10,833
889,8	22,567
890,2	33,967
890,6	4,167
891	-1,433
891,5	-6,033
891,9	27,767
892,3	23,367
892,7	42,167
893,2	42,767
893,6	-2,433
894	2,967
894,4	20,167
894,9	30,967
895,3	29,367
895,7	8,567
896,1	-0,033
896,6	13,567
897	19,767
897,4	-1,833
897,8	23,367
898,3	45,567
898,7	16,767
899,1	13,767
899,5	38,167
900	-4,233
900,4	21,967
900,8	-9,033
901,2	-8,833
901,7	29,367
902,1	29,967
902,5	4,567
902,9	48,367
903,4	10,767
903,8	23,167
904,2	10,367
904,6	16,567
905,1	24,367
905,5	31,167
905,9	12,967
906,3	9,767
906,8	24,967
907,2	-14,833
907,6	8,967
908	-14,633
908,5	2,367
908,9	58,767
909,3	22,167
909,7	3,167
910,2	18,767
910,6	1,967
911	7,367
911,4	3,367
911,9	0,567
912,3	11,567
912,7	-21,033
913,1	29,567
913,6	30,767
914	11,367
914,4	12,967
914,8	8,367
915,3	26,567
915,7	11,167
916,1	4,367
916,5	24,967
916,9	-13,633
917,4	-26,833
917,8	-5,833
918,2	9,967
918,6	-7,633
919,1	-11,833
919,5	29,567
919,9	13,567
920,3	25,167
920,8	10,967
921,2	-3,433
921,6	-0,233
922	15,367
922,5	-0,433
922,9	-20,033
923,3	1,567
923,7	-13,233
924,2	16,967
924,6	19,367
925	14,567
925,4	24,967
925,8	10,167
926,3	15,367
926,7	23,967
927,1	-9,833
927,5	-10,833
928	19,167
928,4	26,367
928,8	25,367
929,2	-20,433
929,7	30,367
930,1	1,767
930,5	23,767
930,9	35,967
931,3	15,767
931,8	19,167
932,2	25,367
932,6	-8,033
933	10,167
933,5	-12,833
933,9	-3,033
934,3	-4,633
934,7	-26,233
935,2	6,367
935,6	-15,833
936	2,967
936,4	-5,833
936,8	22,567
937,3	18,567
937,7	45,767
938,1	13,167
938,5	55,567
939	13,967
939,4	-21,433
939,8	-3,833
940,2	27,167
940,6	-21,233
941,1	10,967
941,5	22,767
941,9	-2,233
942,3	10,367
942,8	-14,633
943,2	5,567
943,6	-24,033
944	7,567
944,4	-6,433
944,9	-33,633
945,3	-17,033
945,7	-4,233
946,1	-19,033
946,6	2,767
947	-21,833
947,4	1,767
947,8	-4,433
948,2	-9,233
948,7	25,767
949,1	-21,633
949,5	18,167
949,9	10,167
950,3	18,167
950,8	18,567
951,2	7,367
951,6	23,967
952	11,367
952,5	22,367
952,9	-3,833
953,3	4,967
953,7	-25,433
954,1	5,567
954,6	-1,433
955	-4,033
955,4	22,567
955,8	14,167
956,2	12,767
956,7	22,367
957,1	3,167
957,5	9,567
957,9	-11,233
958,3	30,567
958,8	7,967
959,2	12,367
959,6	2,567
960	16,567
960,5	-20,833
960,9	-25,633
961,3	-0,833
961,7	11,567
962,1	0,367
962,6	-3,833
963	2,167
963,4	-1,433
963,8	23,567
964,2	3,767
964,7	30,967
965,1	-14,633
965,5	10,967
965,9	10,167
966,3	17,567
966,8	-7,033
967,2	36,767
967,6	-9,233
968	-2,033
968,4	13,967
968,9	10,967
969,3	22,167
969,7	-13,633
970,1	-13,233
970,5	-14,233
971	-4,033
971,4	33,167
971,8	-4,033
972,2	6,167
972,6	10,567
973,1	-23,633
973,5	-2,233
973,9	-14,033
974,3	-13,433
974,7	21,167
975,2	-4,433
975,6	-2,833
976	26,567
976,4	-20,833
976,8	11,567
977,3	-0,233
977,7	11,967
978,1	-15,433
978,5	24,167
978,9	25,767
979,4	8,967
979,8	7,367
980,2	-0,233
980,6	18,567
981	17,767
981,5	-6,633
981,9	26,967
982,3	20,967
982,7	37,367
983,1	45,567
983,6	4,767
984	34,967
984,4	-16,233
984,8	-3,833
985,2	1,367
985,6	1,767
986,1	0,967
986,5	14,367
986,9	19,767
987,3	5,167
987,7	3,167
988,2	26,167
988,6	6,567
989	8,967
989,4	9,967
989,8	8,167
990,3	13,367
990,7	-7,433
991,1	8,567
991,5	18,367
991,9	5,367
992,3	8,767
992,8	1,767
993,2	-0,833
993,6	27,767
994	31,567
994,4	-0,433
994,9	-8,233
995,3	12,967
995,7	2,967
996,1	-44,633
996,5	11,767
996,9	14,967
997,4	17,367
997,8	13,567
998,2	3,367
998,6	31,767
999	6,767
999,5	0,167
999,9	-6,633
1000,3	6,767
1000,7	21,167
1001,1	-13,633
1001,5	4,367
1002	-44,433
1002,4	33,567
1002,8	5,167
1003,2	13,567
1003,6	4,567
1004	-0,433
1004,5	-22,233
1004,9	-4,033
1005,3	-11,233
1005,7	22,367
1006,1	-1,433
1006,6	5,967
1007	12,967
1007,4	28,167
1007,8	24,167
1008,2	0,767
1008,6	15,967
1009,1	-3,433
1009,5	16,367
1009,9	-8,033
1010,3	-11,433
1010,7	-17,233
1011,1	3,367
1011,6	-9,633
1012	-13,433
1012,4	3,567
1012,8	16,167
1013,2	46,967
1013,6	26,567
1014,1	17,967
1014,5	-8,833
1014,9	26,967
1015,3	-15,033
1015,7	-16,233
1016,1	-0,033
1016,6	-4,033
1017	3,967
1017,4	-13,633
1017,8	-0,433
1018,2	24,767
1018,6	10,767
1019,1	-3,833
1019,5	16,767
1019,9	9,367
1020,3	45,767
1020,7	9,567
1021,1	-6,033
1021,6	5,367
1022	4,967
1022,4	-8,833
1022,8	11,767
1023,2	22,567
1023,6	-25,233
1024,1	2,567
1024,5	-25,633
1024,9	-11,633
1025,3	-13,833
1025,7	18,567
1026,1	-5,633
1026,6	17,967
1027	0,567
1027,4	19,167
1027,8	37,967
1028,2	-5,633
1028,6	24,567
1029	34,367
1029,5	8,567
1029,9	-17,633
1030,3	14,367
1030,7	4,367
1031,1	15,167
1031,5	-9,233
1032	8,967
1032,4	26,367
1032,8	6,367
1033,2	32,767
1033,6	21,567
1034	-1,633
1034,4	33,567
1034,9	11,567
1035,3	11,367
1035,7	23,167
1036,1	8,167
1036,5	-0,233
1036,9	2,967
1037,4	-3,233
1037,8	25,367
1038,2	33,967
1038,6	-4,833
1039	20,767
1039,4	11,167
1039,8	15,567
1040,3	16,567
1040,7	16,967
1041,1	31,767
1041,5	16,567
1041,9	-0,233
1042,3	24,567
1042,7	16,567
1043,2	-13,233
1043,6	-20,233
1044	-13,833
1044,4	6,367
1044,8	-28,833
1045,2	-7,633
1045,6	13,767
1046,1	3,567
1046,5	-18,433
1046,9	-5,833
1047,3	13,167
1047,7	16,967
1048,1	-10,433
1048,5	16,367
1049	-4,833
1049,4	-17,033
1049,8	7,767
1050,2	1,767
1050,6	24,967
1051	43,567
1051,4	9,167
1051,9	-10,033
1052,3	-7,833
1052,7	68,767
1053,1	6,367
1053,5	23,367
1053,9	29,767
1054,3	21,767
1054,8	20,767
1055,2	21,167
1055,6	4,167
1056	-22,233
1056,4	14,367
1056,8	-29,633
1057,2	11,167
1057,6	13,567
1058,1	-15,033
1058,5	11,967
1058,9	45,767
1059,3	10,367
1059,7	11,767
1060,1	-3,833
1060,5	13,167
1061	-15,833
1061,4	58,367
1061,8	-14,833
1062,2	5,767
1062,6	32,567
1063	-2,033
1063,4	12,967
1063,8	-9,833
1064,3	0,767
1064,7	5,967
1065,1	-5,633
1065,5	10,367
1065,9	27,367
1066,3	41,567
1066,7	12,367
1067,1	-8,633
1067,6	-7,033
1068	21,767
1068,4	10,967
1068,8	-16,233
1069,2	14,767
1069,6	18,367
1070	9,767
1070,4	11,167
1070,9	30,767
1071,3	33,967
1071,7	7,967
1072,1	12,567
1072,5	-1,433
1072,9	24,967
1073,3	-37,833
1073,7	0,167
1074,2	-16,433
1074,6	9,567
1075	7,767
1075,4	-19,633
1075,8	4,167
1076,2	-6,833
1076,6	-6,833
1077	-2,833
1077,5	34,967
1077,9	50,967
1078,3	-8,033
1078,7	1,167
1079,1	14,167
1079,5	28,967
1079,9	5,767
1080,3	13,967
1080,7	-14,033
1081,2	-14,033
1081,6	-19,433
1082	-8,833
1082,4	34,567
1082,8	-22,833
1083,2	-17,633
1083,6	-4,033
1084	19,567
1084,5	18,767
1084,9	15,167
1085,3	0,167
1085,7	25,767
1086,1	-5,833
1086,5	-12,633
1086,9	11,567
1087,3	4,367
1087,7	16,167
1088,2	3,767
1088,6	-2,833
1089	9,567
1089,4	-25,233
1089,8	27,767
1090,2	12,767
1090,6	-10,833
1091	-8,233
1091,4	-14,433
1091,9	12,967
1092,3	23,167
1092,7	22,567
1093,1	-19,433
1093,5	2,967
1093,9	-11,233
1094,3	-18,233
1094,7	-15,633
1095,1	-17,233
1095,5	12,567
1096	-2,033
1096,4	24,167
1096,8	4,967
1097,2	22,367
1097,6	4,767
1098	4,567
1098,4	-13,433
1098,8	-3,033
1099,2	0,567
1099,6	-13,833
1100,1	-10,233
1100,5	3,567
1100,9	13,567
1101,3	8,367
1101,7	-0,833
1102,1	-5,633
1102,5	-8,233
1102,9	11,167
1103,3	14,767
1103,7	-21,233
1104,2	-2,233
1104,6	-21,433
1105	4,767
1105,4	23,767
1105,8	23,367
1106,2	13,567
1106,6	4,967
1107	0,767
1107,4	-0,833
1107,8	-1,233
1108,3	3,767
