Data from Subt2_00034.txt Node
Date: Wed Aug 02 19:40:03 MSK 2023
User: vat
Spectrometer: MAYP114033
Trigger mode: 0
Integration Time (sec): 7,000000E-1
Scans to average: 5
Electric dark correction enabled: true
Nonlinearity correction enabled: false
Boxcar width: 0
XAxis mode: Wavelengths
Number of Pixels in Spectrum: 2068
>>>>>Begin Spectral Data<<<<<
199,4	2,067
199,9	0,867
200,4	1,867
200,8	0,667
201,3	11,667
201,8	-2,933
202,2	-46,133
202,7	6,467
203,2	12,867
203,6	-10,733
204,1	10,267
204,6	10,667
205	-2,733
205,5	-15,733
206	4,267
206,4	7,667
206,9	10,267
207,4	18,467
207,8	11,667
208,3	8,667
208,8	5,067
209,2	9,067
209,7	2,467
210,2	33,267
210,6	-11,533
211,1	0,467
211,5	-4,333
212	10,467
212,5	29,667
212,9	-11,133
213,4	26,667
213,9	-0,533
214,3	9,267
214,8	36,667
215,3	-10,333
215,7	8,467
216,2	8,667
216,7	-1,333
217,1	-28,533
217,6	2,067
218,1	-1,133
218,5	9,067
219	-4,533
219,5	-1,933
219,9	12,667
220,4	-5,733
220,9	-8,133
221,3	15,067
221,8	3,067
222,3	7,067
222,7	12,267
223,2	20,867
223,6	0,267
224,1	14,667
224,6	6,667
225	21,667
225,5	8,067
226	8,467
226,4	-2,533
226,9	-13,933
227,4	-1,333
227,8	9,067
228,3	20,867
228,8	-7,933
229,2	8,667
229,7	17,467
230,2	-10,133
230,6	6,467
231,1	7,667
231,5	9,067
232	11,067
232,5	17,467
232,9	17,067
233,4	15,867
233,9	27,667
234,3	-5,733
234,8	11,867
235,3	32,067
235,7	23,867
236,2	-10,733
236,7	21,067
237,1	21,467
237,6	-10,933
238,1	28,667
238,5	20,267
239	-34,333
239,4	-34,533
239,9	-10,133
240,4	-18,933
240,8	-6,933
241,3	-0,733
241,8	18,467
242,2	-5,933
242,7	-0,533
243,2	5,467
243,6	-7,333
244,1	-8,733
244,6	23,467
245	-18,533
245,5	14,267
245,9	18,667
246,4	31,867
246,9	-7,733
247,3	2,467
247,8	-20,533
248,3	17,067
248,7	-8,333
249,2	6,867
249,7	7,267
250,1	16,867
250,6	16,267
251	-0,533
251,5	6,867
252	-14,733
252,4	-22,133
252,9	-11,133
253,4	17,267
253,8	11,267
254,3	35,467
254,8	-11,333
255,2	-12,333
255,7	13,467
256,1	-21,333
256,6	-4,333
257,1	-4,133
257,5	7,667
258	23,467
258,5	-2,333
258,9	5,467
259,4	-1,733
259,9	8,467
260,3	6,467
260,8	-2,133
261,2	6,667
261,7	-11,533
262,2	-4,533
262,6	-10,333
263,1	12,067
263,6	-2,533
264	-21,533
264,5	25,667
264,9	20,467
265,4	7,667
265,9	0,667
266,3	-15,333
266,8	-0,733
267,3	23,867
267,7	2,667
268,2	10,867
268,7	-7,333
269,1	-4,133
269,6	5,267
270	-7,133
270,5	19,667
271	13,867
271,4	-7,133
271,9	28,467
272,4	-17,133
272,8	-4,933
273,3	29,267
273,7	4,067
274,2	7,667
274,7	-11,533
275,1	-7,733
275,6	-33,133
276,1	6,467
276,5	3,867
277	17,467
277,4	-14,533
277,9	9,067
278,4	-8,533
278,8	22,067
279,3	-4,533
279,8	14,067
280,2	16,067
280,7	19,467
281,1	15,667
281,6	-22,133
282,1	3,667
282,5	4,467
283	-21,533
283,4	-2,333
283,9	13,867
284,4	-13,733
284,8	0,667
285,3	-5,933
285,8	19,267
286,2	2,667
286,7	7,467
287,1	10,667
287,6	4,667
288,1	27,267
288,5	0,067
289	-23,333
289,5	21,867
289,9	-4,933
290,4	33,467
290,8	16,667
291,3	6,667
291,8	1,467
292,2	-20,533
292,7	3,867
293,1	1,267
293,6	-15,333
294,1	16,667
294,5	-5,133
295	-26,133
295,5	19,467
295,9	0,067
296,4	17,667
296,8	-13,333
297,3	10,467
297,8	-4,933
298,2	24,867
298,7	-6,533
299,1	3,667
299,6	-27,533
300,1	7,267
300,5	13,067
301	19,667
301,5	-0,133
301,9	-2,933
302,4	-56,133
302,8	-16,933
303,3	-7,133
303,8	36,067
304,2	-15,333
304,7	10,467
305,1	14,267
305,6	22,667
306,1	-15,933
306,5	26,267
307	9,067
307,4	-11,733
307,9	3,067
308,4	-19,333
308,8	-15,133
309,3	12,867
309,8	1,067
310,2	-10,933
310,7	21,667
311,1	6,867
311,6	15,667
312,1	9,667
312,5	-3,133
313	13,267
313,4	8,067
313,9	3,467
314,4	9,467
314,8	17,067
315,3	-2,733
315,7	0,667
316,2	9,267
316,7	25,467
317,1	2,067
317,6	16,667
318	16,667
318,5	-10,133
319	9,067
319,4	10,667
319,9	4,867
320,3	-0,933
320,8	25,067
321,3	-15,933
321,7	9,667
322,2	-16,333
322,6	5,867
323,1	7,867
323,6	12,267
324	-25,733
324,5	-4,533
324,9	18,467
325,4	8,067
325,9	19,867
326,3	-8,333
326,8	12,867
327,2	13,667
327,7	10,067
328,2	6,867
328,6	7,667
329,1	10,067
329,5	12,467
330	8,867
330,5	-5,133
330,9	32,467
331,4	0,667
331,8	1,267
332,3	-14,933
332,8	33,467
333,2	-18,333
333,7	-7,733
334,1	11,267
334,6	-3,333
335,1	24,267
335,5	14,267
336	36,667
336,4	4,067
336,9	12,467
337,4	-4,933
337,8	41,667
338,3	-2,733
338,7	28,667
339,2	-22,533
339,7	9,667
340,1	-41,133
340,6	7,867
341	-7,533
341,5	12,067
342	-17,533
342,4	-6,333
342,9	21,467
343,3	34,667
343,8	32,467
344,2	15,067
344,7	40,067
345,2	36,067
345,6	20,067
346,1	0,267
346,5	7,467
347	7,467
347,5	3,267
347,9	-3,533
348,4	17,067
348,8	12,067
349,3	8,867
349,8	14,067
350,2	14,267
350,7	46,667
351,1	14,867
351,6	6,667
352	29,267
352,5	15,067
353	29,467
353,4	27,467
353,9	2,667
354,3	11,467
354,8	9,867
355,3	25,467
355,7	50,867
356,2	19,467
356,6	49,667
357,1	36,467
357,5	77,267
358	62,267
358,5	75,867
358,9	97,267
359,4	118,267
359,8	142,267
360,3	153,467
360,8	148,867
361,2	197,467
361,7	211,867
362,1	249,467
362,6	295,067
363	333,067
363,5	408,467
364	429,467
364,4	451,467
364,9	512,667
365,3	546,267
365,8	578,667
366,3	602,467
366,7	692,867
367,2	723,467
367,6	741,467
368,1	735,667
368,5	737,467
369	785,467
369,5	779,667
369,9	769,067
370,4	778,667
370,8	750,667
371,3	753,467
371,7	728,467
372,2	708,267
372,7	648,267
373,1	609,067
373,6	580,867
374	525,267
374,5	494,667
374,9	492,067
375,4	428,467
375,9	372,667
376,3	375,067
376,8	341,467
377,2	328,867
377,7	266,867
378,2	284,867
378,6	217,667
379,1	231,267
379,5	179,667
380	167,667
380,4	131,667
380,9	182,467
381,4	123,267
381,8	164,467
382,3	118,667
382,7	119,667
383,2	131,867
383,6	105,267
384,1	56,867
384,6	99,867
385	71,467
385,5	72,067
385,9	77,867
386,4	69,667
386,8	84,467
387,3	51,667
387,7	46,467
388,2	65,867
388,7	50,467
389,1	64,067
389,6	74,267
390	44,467
390,5	50,467
390,9	54,267
391,4	51,867
391,9	8,667
392,3	39,467
392,8	28,067
393,2	35,267
393,7	38,667
394,1	50,467
394,6	24,667
395,1	41,067
395,5	41,067
396	48,067
396,4	52,667
396,9	10,467
397,3	53,067
397,8	38,867
398,2	47,667
398,7	46,267
399,2	32,467
399,6	17,067
400,1	48,067
400,5	59,067
401	6,667
401,4	53,267
401,9	44,667
402,4	18,467
402,8	48,667
403,3	41,667
403,7	42,867
404,2	46,467
404,6	42,467
405,1	24,467
405,5	36,267
406	45,867
406,5	38,667
406,9	46,867
407,4	29,667
407,8	52,867
408,3	25,067
408,7	43,267
409,2	68,267
409,6	79,467
410,1	54,667
410,6	82,267
411	70,067
411,5	76,267
411,9	41,667
412,4	87,067
412,8	82,667
413,3	117,667
413,7	111,267
414,2	64,267
414,7	66,867
415,1	106,467
415,6	60,467
416	90,267
416,5	96,667
416,9	125,867
417,4	71,067
417,8	103,467
418,3	106,467
418,8	98,867
419,2	107,467
419,7	117,467
420,1	117,267
420,6	130,667
421	107,867
421,5	156,467
421,9	138,467
422,4	110,867
422,8	134,467
423,3	139,067
423,8	145,667
424,2	147,067
424,7	144,467
425,1	171,267
425,6	166,467
426	183,467
426,5	193,467
426,9	203,867
427,4	201,067
427,9	175,867
428,3	189,867
428,8	195,467
429,2	216,667
429,7	209,067
430,1	204,067
430,6	284,267
431	233,467
431,5	213,667
431,9	280,667
432,4	261,467
432,8	275,267
433,3	273,867
433,8	300,667
434,2	279,867
434,7	314,467
435,1	323,867
435,6	368,667
436	382,067
436,5	380,467
436,9	358,667
437,4	421,667
437,8	412,467
438,3	446,067
438,8	413,467
439,2	481,867
439,7	477,667
440,1	480,667
440,6	511,067
441	512,267
441,5	534,867
441,9	553,467
442,4	555,867
442,8	585,467
443,3	625,667
443,7	639,267
444,2	629,467
444,7	674,267
445,1	683,067
445,6	723,467
446	733,267
446,5	794,267
446,9	746,267
447,4	827,467
447,8	843,467
448,3	879,667
448,7	876,067
449,2	925,667
449,6	912,267
450,1	935,467
450,6	996,667
451	1002,267
451,5	1018,867
451,9	1049,267
452,4	1084,267
452,8	1109,667
453,3	1137,067
453,7	1169,867
454,2	1195,267
454,6	1236,667
455,1	1266,867
455,5	1273,467
456	1317,667
456,4	1329,267
456,9	1338,467
457,3	1401,667
457,8	1410,867
458,3	1461,467
458,7	1466,867
459,2	1476,067
459,6	1569,267
460,1	1578,267
460,5	1577,667
461	1593,067
461,4	1643,067
461,9	1727,867
462,3	1705,067
462,8	1740,467
463,2	1773,467
463,7	1785,467
464,1	1818,867
464,6	1879,867
465	1873,467
465,5	1916,867
466	1954,067
466,4	1975,467
466,9	2000,667
467,3	1988,867
467,8	2032,867
468,2	2133,667
468,7	2143,667
469,1	2127,267
469,6	2164,667
470	2192,267
470,5	2216,067
470,9	2232,667
471,4	2236,267
471,8	2265,067
472,3	2286,267
472,7	2294,267
473,2	2326,067
473,6	2365,667
474,1	2367,867
474,5	2390,467
475	2437,467
475,4	2433,667
475,9	2422,267
476,4	2468,867
476,8	2515,067
477,3	2474,467
477,7	2514,667
478,2	2518,667
478,6	2552,467
479,1	2552,667
479,5	2584,467
480	2575,067
480,4	2602,067
480,9	2612,267
481,3	2618,467
481,8	2601,067
482,2	2631,467
482,7	2654,667
483,1	2636,467
483,6	2693,867
484	2662,867
484,5	2661,067
484,9	2704,667
485,4	2678,067
485,8	2699,067
486,3	2659,867
486,7	2675,667
487,2	2696,067
487,6	2657,267
488,1	2706,467
488,5	2695,467
489	2685,667
489,4	2714,867
489,9	2687,667
490,4	2697,667
490,8	2681,467
491,3	2666,067
491,7	2682,867
492,2	2679,467
492,6	2722,267
493,1	2667,067
493,5	2673,667
494	2658,867
494,4	2622,467
494,9	2653,467
495,3	2658,067
495,8	2652,667
496,2	2605,267
496,7	2602,467
497,1	2628,667
497,6	2599,467
498	2579,667
498,5	2626,067
498,9	2523,267
499,4	2534,467
499,8	2561,867
500,3	2518,267
500,7	2528,067
501,2	2520,867
501,6	2524,667
502,1	2521,267
502,5	2484,267
503	2507,267
503,4	2472,867
503,9	2477,067
504,3	2440,867
504,8	2445,867
505,2	2455,267
505,7	2380,067
506,1	2436,467
506,6	2410,067
507	2410,067
507,5	2387,467
507,9	2358,467
508,4	2300,667
508,8	2345,867
509,3	2299,067
509,7	2292,467
510,2	2281,267
510,6	2288,267
511,1	2292,467
511,5	2246,867
512	2243,067
512,4	2249,867
512,9	2205,867
513,3	2177,667
513,8	2202,067
514,2	2162,067
514,7	2160,867
515,1	2113,867
515,6	2153,667
516	2108,467
516,5	2091,067
516,9	2054,867
517,4	2097,467
517,8	2050,067
518,3	2054,067
518,7	2021,667
519,2	2027,067
519,6	1996,467
520,1	1991,467
520,5	1968,067
521	1989,467
521,4	1924,867
521,9	1906,267
522,3	1917,667
522,8	1910,067
523,2	1883,267
523,7	1891,267
524,1	1883,467
524,6	1831,267
525	1867,867
525,5	1836,667
525,9	1843,667
526,4	1841,467
526,8	1826,267
527,3	1769,867
527,7	1798,467
528,2	1766,267
528,6	1745,467
529,1	1708,267
529,5	1755,667
530	1719,467
530,4	1696,467
530,9	1721,667
531,3	1671,267
531,8	1704,067
532,2	1686,667
532,6	1669,467
533,1	1664,667
533,5	1644,667
534	1619,067
534,4	1613,467
534,9	1631,267
535,3	1609,667
535,8	1604,667
536,2	1602,067
536,7	1576,067
537,1	1533,067
537,6	1535,267
538	1501,667
538,5	1526,067
538,9	1522,467
539,4	1483,267
539,8	1502,867
540,3	1473,267
540,7	1461,667
541,2	1480,867
541,6	1453,467
542,1	1442,467
542,5	1448,667
543	1435,867
543,4	1451,067
543,9	1442,467
544,3	1428,067
544,8	1457,667
545,2	1405,467
545,7	1425,467
546,1	1413,267
546,5	1386,267
547	1397,667
547,4	1376,667
547,9	1361,667
548,3	1318,667
548,8	1342,267
549,2	1327,067
549,7	1313,667
550,1	1324,667
550,6	1302,467
551	1331,867
551,5	1294,667
551,9	1288,067
552,4	1296,867
552,8	1261,067
553,3	1290,867
553,7	1277,467
554,2	1310,667
554,6	1259,067
555,1	1278,067
555,5	1239,467
555,9	1238,467
556,4	1222,067
556,8	1284,667
557,3	1242,667
557,7	1219,667
558,2	1247,867
558,6	1198,667
559,1	1227,067
559,5	1215,867
560	1222,867
560,4	1205,467
560,9	1205,667
561,3	1180,467
561,8	1192,667
562,2	1176,467
562,7	1223,467
563,1	1189,667
563,6	1150,467
564	1137,667
564,4	1149,067
564,9	1168,067
565,3	1148,667
565,8	1142,467
566,2	1190,667
566,7	1144,867
567,1	1132,867
567,6	1116,467
568	1111,867
568,5	1134,267
568,9	1120,867
569,4	1090,667
569,8	1107,667
570,3	1080,067
570,7	1130,667
571,1	1094,667
571,6	1090,067
572	1084,067
572,5	1071,467
572,9	1068,067
573,4	1052,067
573,8	1048,667
574,3	1052,267
574,7	1055,667
575,2	1037,467
575,6	1025,867
576,1	1054,067
576,5	994,867
576,9	1008,467
577,4	1012,667
577,8	1036,067
578,3	997,467
578,7	992,267
579,2	1039,067
579,6	985,067
580,1	1014,467
580,5	1008,867
581	996,067
581,4	999,667
581,9	980,467
582,3	959,267
582,7	982,667
583,2	935,067
583,6	938,067
584,1	950,267
584,5	931,267
585	933,267
585,4	938,467
585,9	951,067
586,3	949,467
586,8	916,467
587,2	881,067
587,6	914,667
588,1	903,067
588,5	928,467
589	868,867
589,4	884,667
589,9	891,667
590,3	883,667
590,8	883,267
591,2	861,867
591,7	896,667
592,1	880,067
592,5	851,267
593	865,067
593,4	869,867
593,9	837,667
594,3	864,467
594,8	847,867
595,2	848,267
595,7	858,667
596,1	832,667
596,6	837,467
597	805,667
597,4	802,267
597,9	824,067
598,3	816,667
598,8	823,067
599,2	815,467
599,7	813,267
600,1	837,867
600,6	809,867
601	796,467
601,4	824,267
601,9	791,467
602,3	776,467
602,8	795,267
603,2	825,067
603,7	763,667
604,1	744,267
604,6	770,267
605	729,667
605,4	753,667
605,9	761,867
606,3	763,667
606,8	746,867
607,2	738,267
607,7	740,667
608,1	765,067
608,6	732,067
609	743,067
609,4	728,667
609,9	685,267
610,3	741,867
610,8	701,867
611,2	684,667
611,7	680,467
612,1	731,067
612,6	687,667
613	710,867
613,4	688,867
613,9	654,667
614,3	678,467
614,8	707,067
615,2	651,667
615,7	645,867
616,1	662,267
616,6	646,267
617	681,067
617,4	683,267
617,9	618,467
618,3	666,067
618,8	646,467
619,2	620,667
619,7	621,667
620,1	619,067
620,5	634,467
621	628,467
621,4	648,867
621,9	620,267
622,3	608,267
622,8	602,267
623,2	620,467
623,6	587,667
624,1	582,667
624,5	573,067
625	618,867
625,4	556,467
625,9	600,867
626,3	592,267
626,8	582,667
627,2	573,467
627,6	581,667
628,1	582,267
628,5	530,467
629	554,467
629,4	550,067
629,9	541,867
630,3	530,667
630,7	550,067
631,2	550,667
631,6	519,467
632,1	518,467
632,5	553,667
633	532,267
633,4	518,667
633,8	508,467
634,3	493,267
634,7	530,867
635,2	475,667
635,6	504,467
636,1	520,067
636,5	500,467
636,9	501,667
637,4	496,267
637,8	492,467
638,3	466,467
638,7	450,467
639,2	458,667
639,6	468,467
640	465,467
640,5	454,467
640,9	469,467
641,4	459,267
641,8	454,867
642,2	422,267
642,7	449,267
643,1	456,267
643,6	435,867
644	414,467
644,5	449,867
644,9	447,667
645,3	433,867
645,8	438,467
646,2	403,267
646,7	391,067
647,1	410,267
647,6	395,067
648	418,867
648,4	425,067
648,9	393,267
649,3	382,867
649,8	375,067
650,2	397,467
650,6	416,267
651,1	416,667
651,5	412,467
652	408,467
652,4	381,067
652,9	363,467
653,3	406,267
653,7	377,067
654,2	407,267
654,6	395,867
655,1	413,467
655,5	399,467
655,9	424,667
656,4	363,267
656,8	359,267
657,3	348,067
657,7	372,867
658,2	331,067
658,6	349,667
659	344,267
659,5	381,467
659,9	346,867
660,4	358,267
660,8	308,667
661,2	343,867
661,7	357,867
662,1	350,867
662,6	354,267
663	340,067
663,4	326,667
663,9	361,067
664,3	339,667
664,8	319,667
665,2	361,067
665,6	292,267
666,1	299,867
666,5	299,067
667	296,267
667,4	297,467
667,9	286,467
668,3	294,467
668,7	314,267
669,2	295,867
669,6	313,467
670,1	310,067
670,5	260,067
670,9	262,067
671,4	289,867
671,8	287,667
672,3	303,067
672,7	307,067
673,1	255,067
673,6	268,067
674	290,467
674,5	250,067
674,9	285,267
675,3	259,867
675,8	260,067
676,2	276,067
676,7	269,667
677,1	222,867
677,5	254,067
678	264,067
678,4	236,667
678,9	270,467
679,3	250,867
679,7	233,667
680,2	238,067
680,6	269,467
681,1	252,267
681,5	250,467
681,9	264,867
682,4	244,067
682,8	244,067
683,3	242,067
683,7	239,067
684,1	251,667
684,6	212,467
685	223,267
685,5	253,667
685,9	226,667
686,3	215,267
686,8	201,467
687,2	199,667
687,7	208,667
688,1	226,067
688,5	193,267
689	198,467
689,4	227,267
689,9	194,267
690,3	204,467
690,7	235,467
691,2	186,267
691,6	191,067
692	226,267
692,5	194,467
692,9	175,867
693,4	175,467
693,8	193,067
694,2	200,867
694,7	176,867
695,1	195,267
695,6	198,667
696	165,867
696,4	204,067
696,9	192,067
697,3	170,267
697,8	166,667
698,2	205,067
698,6	168,267
699,1	172,267
699,5	173,667
699,9	170,467
700,4	180,667
700,8	164,467
701,3	191,267
701,7	139,667
702,1	153,267
702,6	184,067
703	178,667
703,5	145,467
703,9	135,867
704,3	154,467
704,8	148,067
705,2	189,067
705,6	138,267
706,1	140,267
706,5	149,067
707	170,467
707,4	151,267
707,8	160,667
708,3	175,667
708,7	173,267
709,2	140,667
709,6	169,267
710	136,067
710,5	149,067
710,9	164,867
711,3	171,267
711,8	125,067
712,2	140,867
712,7	152,467
713,1	159,467
713,5	129,067
714	133,067
714,4	164,067
714,8	144,867
715,3	90,267
715,7	138,067
716,2	120,467
716,6	119,867
717	109,667
717,5	120,667
717,9	105,667
718,3	145,467
718,8	129,667
719,2	128,067
719,7	82,267
720,1	126,267
720,5	123,467
721	119,467
721,4	151,067
721,8	118,067
722,3	101,867
722,7	133,467
723,2	90,667
723,6	87,067
724	135,267
724,5	127,267
724,9	114,667
725,3	88,267
725,8	116,467
726,2	81,267
726,7	101,467
727,1	123,267
727,5	129,467
728	125,067
728,4	127,067
728,8	107,467
729,3	109,667
729,7	77,667
730,1	80,267
730,6	86,267
731	85,067
731,5	103,667
731,9	122,467
732,3	101,867
732,8	98,267
733,2	114,867
733,6	108,867
734,1	97,467
734,5	121,467
734,9	91,467
735,4	73,667
735,8	124,267
736,3	69,467
736,7	117,067
737,1	115,867
737,6	77,867
738	66,267
738,4	81,667
738,9	102,467
739,3	111,067
739,7	80,267
740,2	89,467
740,6	80,667
741,1	89,067
741,5	78,867
741,9	75,267
742,4	94,067
742,8	74,667
743,2	108,667
743,7	86,667
744,1	87,467
744,5	78,667
745	106,467
745,4	114,467
745,8	90,467
746,3	79,667
746,7	59,067
747,2	51,667
747,6	69,867
748	67,867
748,5	55,267
748,9	34,267
749,3	88,067
749,8	73,667
750,2	81,467
750,6	84,467
751,1	44,667
751,5	90,067
751,9	84,467
752,4	39,667
752,8	54,067
753,3	71,267
753,7	48,467
754,1	90,467
754,6	106,467
755	49,467
755,4	65,467
755,9	83,267
756,3	54,067
756,7	67,067
757,2	52,867
757,6	65,267
758	70,667
758,5	79,467
758,9	60,267
759,3	67,067
759,8	61,467
760,2	60,667
760,6	38,067
761,1	38,267
761,5	71,467
761,9	64,267
762,4	44,667
762,8	55,467
763,3	46,667
763,7	47,867
764,1	77,667
764,6	73,267
765	29,067
765,4	60,667
765,9	44,467
766,3	53,067
766,7	60,867
767,2	62,467
767,6	23,667
768	75,267
768,5	70,067
768,9	55,067
769,3	40,467
769,8	71,267
770,2	47,267
770,6	45,267
771,1	75,867
771,5	35,467
771,9	41,867
772,4	68,667
772,8	62,267
773,2	49,467
773,7	79,867
774,1	53,667
774,5	52,867
775	50,867
775,4	51,467
775,8	65,867
776,3	51,867
776,7	54,467
777,1	29,667
777,6	48,067
778	7,867
778,4	82,667
778,9	45,467
779,3	57,667
779,7	45,867
780,2	56,667
780,6	47,867
781	43,467
781,5	41,867
781,9	48,267
782,3	76,067
782,8	104,067
783,2	63,867
783,6	61,267
784,1	57,067
784,5	9,667
784,9	33,667
785,4	40,867
785,8	38,667
786,2	50,867
786,7	18,267
787,1	58,667
787,5	15,067
788	20,667
788,4	48,667
788,8	16,867
789,3	41,067
789,7	63,267
790,1	74,267
790,6	16,267
791	46,467
791,4	54,267
791,9	54,867
792,3	56,467
792,7	11,467
793,2	66,267
793,6	45,867
794	63,667
794,5	27,267
794,9	32,667
795,3	54,667
795,8	34,867
796,2	31,467
796,6	29,067
797,1	16,067
797,5	40,467
797,9	38,867
798,4	1,067
798,8	29,467
799,2	47,267
799,7	43,267
800,1	11,267
800,5	31,467
801	18,867
801,4	27,867
801,8	41,867
802,2	22,867
802,7	19,467
803,1	20,867
803,5	37,067
804	18,867
804,4	27,267
804,8	36,267
805,3	25,467
805,7	33,667
806,1	37,067
806,6	9,667
807	8,267
807,4	38,067
807,9	45,267
808,3	31,667
808,7	39,467
809,2	25,267
809,6	32,267
810	47,067
810,4	52,267
810,9	41,867
811,3	8,067
811,7	34,267
812,2	24,867
812,6	56,067
813	19,467
813,5	28,267
813,9	28,267
814,3	34,267
814,8	23,467
815,2	36,467
815,6	21,467
816,1	8,867
816,5	13,467
816,9	14,467
817,3	19,467
817,8	25,867
818,2	29,467
818,6	56,067
819,1	33,467
819,5	26,867
819,9	25,667
820,4	6,067
820,8	4,467
821,2	59,667
821,7	0,867
822,1	22,867
822,5	41,267
822,9	41,867
823,4	10,867
823,8	38,667
824,2	21,467
824,7	20,667
825,1	-5,533
825,5	13,467
826	38,067
826,4	45,667
826,8	33,267
827,3	27,267
827,7	31,467
828,1	6,467
828,5	29,467
829	18,867
829,4	27,467
829,8	21,267
830,3	36,867
830,7	4,667
831,1	13,667
831,6	25,067
832	3,867
832,4	21,867
832,8	13,867
833,3	33,667
833,7	17,667
834,1	22,867
834,6	-7,333
835	11,667
835,4	6,867
835,8	28,267
836,3	32,867
836,7	39,067
837,1	58,067
837,6	-9,533
838	21,867
838,4	19,267
838,9	3,267
839,3	39,067
839,7	14,267
840,1	-10,333
840,6	30,267
841	30,667
841,4	0,867
841,9	7,667
842,3	38,867
842,7	10,067
843,1	8,267
843,6	49,067
844	14,267
844,4	19,867
844,9	33,467
845,3	21,267
845,7	36,067
846,2	8,467
846,6	13,667
847	9,667
847,4	20,467
847,9	27,667
848,3	11,067
848,7	37,267
849,2	26,067
849,6	17,867
850	-6,533
850,4	13,867
850,9	-4,133
851,3	28,067
851,7	20,467
852,2	13,267
852,6	20,467
853	17,867
853,4	8,867
853,9	29,867
854,3	21,667
854,7	15,467
855,2	25,667
855,6	5,267
856	-5,333
856,4	10,267
856,9	24,267
857,3	14,667
857,7	27,467
858,2	17,267
858,6	18,267
859	23,467
859,4	23,667
859,9	39,067
860,3	-1,933
860,7	37,867
861,1	32,667
861,6	34,667
862	28,267
862,4	-9,733
862,9	0,667
863,3	19,667
863,7	3,267
864,1	23,667
864,6	19,267
865	24,067
865,4	45,267
865,9	30,467
866,3	14,267
866,7	14,067
867,1	-10,533
867,6	-6,733
868	44,067
868,4	16,867
868,8	-6,733
869,3	26,067
869,7	24,667
870,1	6,667
870,6	35,067
871	0,267
871,4	42,067
871,8	2,867
872,3	192,067
872,7	23,867
873,1	3,867
873,5	-7,933
874	30,267
874,4	13,067
874,8	36,667
875,3	33,867
875,7	30,267
876,1	28,267
876,5	17,267
877	-7,933
877,4	20,267
877,8	27,867
878,2	11,267
878,7	12,467
879,1	-17,333
879,5	-12,533
879,9	2,067
880,4	28,067
880,8	1,067
881,2	-0,133
881,7	25,067
882,1	5,267
882,5	2,867
882,9	8,867
883,4	13,867
883,8	33,467
884,2	16,467
884,6	32,267
885,1	6,667
885,5	-17,733
885,9	33,467
886,3	-2,733
886,8	32,867
887,2	18,267
887,6	8,867
888	14,667
888,5	24,867
888,9	-9,533
889,3	-0,933
889,8	10,467
890,2	27,267
890,6	-3,933
891	26,867
891,5	28,467
891,9	-3,133
892,3	36,867
892,7	2,667
893,2	18,267
893,6	22,467
894	33,267
894,4	25,067
894,9	30,067
895,3	34,267
895,7	8,867
896,1	-6,133
896,6	13,067
897	4,867
897,4	9,067
897,8	-33,733
898,3	9,067
898,7	14,267
899,1	-3,933
899,5	14,067
900	14,267
900,4	3,067
900,8	-13,733
901,2	17,667
901,7	-18,533
902,1	-0,333
902,5	9,667
902,9	28,867
903,4	9,667
903,8	-19,533
904,2	-13,333
904,6	47,667
905,1	-4,133
905,5	13,067
905,9	32,067
906,3	-6,933
906,8	-21,733
907,2	35,067
907,6	-12,133
908	1,667
908,5	-4,133
908,9	23,267
909,3	21,867
909,7	13,867
910,2	-20,533
910,6	17,267
911	11,267
911,4	-3,133
911,9	-7,133
912,3	-9,733
912,7	28,867
913,1	0,467
913,6	4,267
914	29,867
914,4	-24,733
914,8	0,067
915,3	-19,133
915,7	8,467
916,1	23,267
916,5	-8,533
916,9	21,867
917,4	16,667
917,8	2,467
918,2	23,867
918,6	9,467
919,1	-21,533
919,5	-26,133
919,9	21,267
920,3	-18,533
920,8	1,467
921,2	6,267
921,6	-7,133
922	8,667
922,5	19,467
922,9	3,067
923,3	-15,333
923,7	-9,133
924,2	18,667
924,6	9,667
925	-19,533
925,4	-2,133
925,8	-6,933
926,3	25,867
926,7	5,267
927,1	6,867
927,5	12,267
928	-9,333
928,4	-20,133
928,8	-15,733
929,2	22,067
929,7	14,467
930,1	-3,133
930,5	1,667
930,9	3,667
931,3	1,067
931,8	-1,533
932,2	27,067
932,6	-1,733
933	6,867
933,5	19,867
933,9	13,267
934,3	1,667
934,7	29,267
935,2	-11,133
935,6	7,467
936	28,667
936,4	21,867
936,8	-18,933
937,3	3,867
937,7	-3,333
938,1	24,667
938,5	-5,933
939	33,867
939,4	-8,133
939,8	0,667
940,2	14,667
940,6	2,667
941,1	19,267
941,5	16,067
941,9	0,467
942,3	14,667
942,8	-1,733
943,2	-4,733
943,6	12,867
944	3,667
944,4	-3,533
944,9	25,267
945,3	11,067
945,7	-5,533
946,1	16,267
946,6	-5,133
947	14,267
947,4	9,067
947,8	24,667
948,2	-9,733
948,7	-15,733
949,1	13,667
949,5	-3,533
949,9	17,667
950,3	-9,733
950,8	5,267
951,2	-4,933
951,6	7,467
952	17,067
952,5	26,067
952,9	20,867
953,3	-9,133
953,7	-4,933
954,1	14,867
954,6	-0,533
955	14,067
955,4	33,867
955,8	-17,133
956,2	8,067
956,7	-10,533
957,1	-15,333
957,5	10,267
957,9	15,267
958,3	-25,933
958,8	-8,733
959,2	-0,933
959,6	-11,733
960	-14,933
960,5	14,267
960,9	-2,733
961,3	5,067
961,7	-9,533
962,1	14,067
962,6	-0,933
963	21,267
963,4	29,267
963,8	9,467
964,2	6,867
964,7	-30,133
965,1	17,267
965,5	-0,933
965,9	-1,333
966,3	-11,733
966,8	-2,933
967,2	-4,733
967,6	-4,733
968	-36,733
968,4	-2,133
968,9	0,867
969,3	6,267
969,7	-7,533
970,1	-13,733
970,5	-16,533
971	-8,133
971,4	8,667
971,8	9,667
972,2	3,267
972,6	24,267
973,1	18,067
973,5	19,667
973,9	-4,733
974,3	-10,333
974,7	-28,733
975,2	-13,533
975,6	0,067
976	-13,133
976,4	-2,133
976,8	-6,933
977,3	2,867
977,7	-0,133
978,1	-2,133
978,5	16,267
978,9	-5,333
979,4	-12,133
979,8	-5,133
980,2	16,867
980,6	21,467
981	-33,333
981,5	-11,133
981,9	18,267
982,3	-10,933
982,7	15,267
983,1	-10,333
983,6	16,067
984	2,867
984,4	11,467
984,8	1,267
985,2	2,467
985,6	18,067
986,1	-29,333
986,5	-23,533
986,9	-13,733
987,3	-29,133
987,7	-14,933
988,2	5,267
988,6	6,067
989	19,067
989,4	-0,733
989,8	2,067
990,3	-28,933
990,7	-31,133
991,1	-13,533
991,5	-6,733
991,9	33,667
992,3	-21,533
992,8	16,467
993,2	36,267
993,6	6,867
994	-7,733
994,4	-24,133
994,9	9,867
995,3	10,267
995,7	2,867
996,1	4,067
996,5	20,267
996,9	12,467
997,4	9,867
997,8	35,467
998,2	-3,133
998,6	17,067
999	1,667
999,5	9,667
999,9	-27,533
1000,3	-13,333
1000,7	-0,133
1001,1	-4,333
1001,5	0,667
1002	-2,933
1002,4	0,267
1002,8	6,267
1003,2	-16,733
1003,6	27,867
1004	-25,133
1004,5	2,667
1004,9	-1,533
1005,3	15,867
1005,7	-4,933
1006,1	-11,133
1006,6	-21,733
1007	17,867
1007,4	22,867
1007,8	-5,133
1008,2	20,667
1008,6	7,667
1009,1	25,067
1009,5	16,267
1009,9	3,867
1010,3	-31,933
1010,7	-0,933
1011,1	4,267
1011,6	13,067
1012	-16,133
1012,4	14,667
1012,8	0,067
1013,2	-4,933
1013,6	-18,933
1014,1	4,267
1014,5	10,667
1014,9	-6,133
1015,3	13,067
1015,7	-17,133
1016,1	-15,133
1016,6	6,467
1017	3,867
1017,4	-19,733
1017,8	9,067
1018,2	-21,333
1018,6	11,067
1019,1	12,067
1019,5	-23,333
1019,9	18,067
1020,3	25,067
1020,7	16,467
1021,1	-12,333
1021,6	-14,733
1022	2,867
1022,4	-5,733
1022,8	-3,733
1023,2	-18,333
1023,6	-4,733
1024,1	30,067
1024,5	-25,533
1024,9	-0,133
1025,3	-23,533
1025,7	-9,133
1026,1	41,467
1026,6	-12,133
1027	-25,533
1027,4	-15,933
1027,8	31,467
1028,2	-14,533
1028,6	8,667
1029	-20,733
1029,5	11,867
1029,9	6,467
1030,3	4,867
1030,7	9,067
1031,1	20,267
1031,5	-22,533
1032	1,867
1032,4	-7,533
1032,8	19,667
1033,2	-12,333
1033,6	-17,133
1034	3,667
1034,4	7,467
1034,9	37,267
1035,3	-10,333
1035,7	8,867
1036,1	-10,533
1036,5	-2,533
1036,9	12,467
1037,4	2,267
1037,8	9,667
1038,2	22,467
1038,6	18,067
1039	-16,933
1039,4	4,267
1039,8	16,667
1040,3	14,267
1040,7	-14,333
1041,1	-14,733
1041,5	49,867
1041,9	-3,533
1042,3	16,667
1042,7	12,467
1043,2	17,267
1043,6	13,467
1044	5,267
1044,4	-15,333
1044,8	-4,533
1045,2	10,067
1045,6	22,667
1046,1	-5,133
1046,5	0,667
1046,9	54,467
1047,3	10,067
1047,7	6,667
1048,1	-0,333
1048,5	5,667
1049	22,667
1049,4	18,267
1049,8	-1,333
1050,2	4,467
1050,6	-8,533
1051	16,667
1051,4	6,467
1051,9	6,267
1052,3	11,667
1052,7	-12,933
1053,1	-7,133
1053,5	-16,733
1053,9	23,467
1054,3	18,467
1054,8	10,867
1055,2	2,667
1055,6	1,467
1056	13,267
1056,4	4,267
1056,8	19,867
1057,2	22,867
1057,6	39,867
1058,1	-15,933
1058,5	-7,533
1058,9	12,267
1059,3	8,267
1059,7	27,067
1060,1	17,467
1060,5	14,267
1061	-10,533
1061,4	30,267
1061,8	18,267
1062,2	32,467
1062,6	46,467
1063	-6,533
1063,4	18,267
1063,8	-8,133
1064,3	1,067
1064,7	-0,733
1065,1	7,267
1065,5	6,467
1065,9	-18,333
1066,3	-13,933
1066,7	1,667
1067,1	31,067
1067,6	5,267
1068	-4,933
1068,4	-13,533
1068,8	-26,133
1069,2	-8,933
1069,6	-2,133
1070	2,267
1070,4	2,267
1070,9	0,267
1071,3	-0,333
1071,7	-3,533
1072,1	2,467
1072,5	2,267
1072,9	-38,733
1073,3	0,067
1073,7	18,067
1074,2	4,867
1074,6	-14,533
1075	-6,533
1075,4	11,867
1075,8	22,267
1076,2	5,667
1076,6	14,067
1077	1,067
1077,5	11,667
1077,9	16,267
1078,3	-28,933
1078,7	-0,333
1079,1	-3,533
1079,5	25,067
1079,9	27,467
1080,3	-6,533
1080,7	20,667
1081,2	28,667
1081,6	-9,333
1082	-2,933
1082,4	19,467
1082,8	2,267
1083,2	-2,533
1083,6	20,867
1084	20,267
1084,5	-7,333
1084,9	-7,333
1085,3	1,867
1085,7	-4,333
1086,1	11,867
1086,5	-4,133
1086,9	2,467
1087,3	-1,133
1087,7	-0,533
1088,2	2,067
1088,6	22,667
1089	11,867
1089,4	-8,733
1089,8	-19,533
1090,2	18,067
1090,6	8,867
1091	-19,733
1091,4	3,267
1091,9	-5,333
1092,3	1,067
1092,7	-5,333
1093,1	-12,533
1093,5	-6,133
1093,9	-0,533
1094,3	23,067
1094,7	33,667
1095,1	4,667
1095,5	14,467
1096	-0,133
1096,4	8,467
1096,8	29,267
1097,2	-35,133
1097,6	44,467
1098	36,867
1098,4	15,067
1098,8	7,467
1099,2	4,067
1099,6	1,267
1100,1	-4,133
1100,5	-17,133
1100,9	20,067
1101,3	17,667
1101,7	-7,133
1102,1	-6,933
1102,5	1,067
1102,9	-10,533
1103,3	-10,733
1103,7	-5,133
1104,2	3,267
1104,6	-5,133
1105	18,867
1105,4	-6,933
1105,8	-6,133
1106,2	17,867
1106,6	23,067
1107	-1,933
1107,4	-1,333
1107,8	1,467
1108,3	-0,733
