Data from Subt2_00001.txt Node
Date: Wed Aug 02 18:49:05 MSK 2023
User: vat
Spectrometer: MAYP114033
Trigger mode: 0
Integration Time (sec): 7,000000E-1
Scans to average: 5
Electric dark correction enabled: true
Nonlinearity correction enabled: false
Boxcar width: 0
XAxis mode: Wavelengths
Number of Pixels in Spectrum: 2068
>>>>>Begin Spectral Data<<<<<
199,4	-0,367
199,9	-0,567
200,4	-1,567
200,8	1,033
201,3	3,033
201,8	13,433
202,2	-14,767
202,7	-28,567
203,2	-4,167
203,6	-4,967
204,1	1,633
204,6	-25,367
205	32,033
205,5	15,433
206	-20,167
206,4	23,833
206,9	-12,567
207,4	2,033
207,8	13,033
208,3	-1,167
208,8	-7,767
209,2	14,033
209,7	0,833
210,2	3,233
210,6	-5,967
211,1	-3,967
211,5	-20,167
212	11,433
212,5	5,833
212,9	2,233
213,4	-1,167
213,9	-24,567
214,3	10,233
214,8	7,433
215,3	0,833
215,7	12,433
216,2	15,033
216,7	-17,967
217,1	-11,967
217,6	-10,367
218,1	2,433
218,5	-43,567
219	5,833
219,5	10,833
219,9	9,433
220,4	-23,567
220,9	23,833
221,3	-12,767
221,8	4,633
222,3	3,433
222,7	14,233
223,2	3,433
223,6	2,233
224,1	14,433
224,6	0,433
225	-2,367
225,5	13,833
226	-11,567
226,4	-4,767
226,9	-0,167
227,4	41,833
227,8	-9,967
228,3	-16,567
228,8	3,833
229,2	-4,767
229,7	9,433
230,2	31,633
230,6	5,633
231,1	33,833
231,5	13,033
232	-2,167
232,5	6,433
232,9	-42,967
233,4	-1,967
233,9	-22,967
234,3	2,233
234,8	19,033
235,3	11,033
235,7	8,433
236,2	14,233
236,7	-23,167
237,1	16,433
237,6	-1,567
238,1	-0,967
238,5	12,233
239	5,233
239,4	-12,967
239,9	-17,367
240,4	28,033
240,8	-3,167
241,3	1,433
241,8	0,033
242,2	11,233
242,7	-12,367
243,2	19,233
243,6	26,033
244,1	-3,967
244,6	9,833
245	-13,567
245,5	-29,367
245,9	30,233
246,4	-4,967
246,9	3,433
247,3	0,633
247,8	29,033
248,3	15,233
248,7	-12,367
249,2	-0,767
249,7	-4,367
250,1	22,033
250,6	-9,367
251	15,633
251,5	-9,967
252	24,833
252,4	-4,167
252,9	18,833
253,4	32,633
253,8	-15,567
254,3	37,633
254,8	-15,967
255,2	23,233
255,7	13,033
256,1	-3,767
256,6	-5,367
257,1	3,633
257,5	0,633
258	13,033
258,5	1,033
258,9	-15,767
259,4	24,433
259,9	-9,367
260,3	36,633
260,8	12,233
261,2	-25,567
261,7	24,633
262,2	6,233
262,6	6,633
263,1	4,633
263,6	28,233
264	22,233
264,5	-16,167
264,9	2,633
265,4	13,233
265,9	10,633
266,3	3,033
266,8	39,633
267,3	2,233
267,7	-6,967
268,2	-4,367
268,7	6,433
269,1	-11,967
269,6	13,233
270	8,433
270,5	6,433
271	-14,767
271,4	30,033
271,9	4,233
272,4	7,433
272,8	10,233
273,3	-28,767
273,7	16,833
274,2	-2,567
274,7	-7,367
275,1	1,433
275,6	-14,167
276,1	28,033
276,5	1,233
277	15,233
277,4	-14,967
277,9	-22,367
278,4	-2,967
278,8	28,033
279,3	1,633
279,8	1,433
280,2	-26,167
280,7	-39,567
281,1	-26,167
281,6	6,033
282,1	-10,167
282,5	9,033
283	-26,367
283,4	-4,167
283,9	17,233
284,4	-17,167
284,8	8,033
285,3	-17,167
285,8	20,633
286,2	15,633
286,7	-26,167
287,1	-8,367
287,6	11,033
288,1	-7,567
288,5	9,833
289	-10,967
289,5	-19,567
289,9	16,633
290,4	11,433
290,8	21,433
291,3	35,833
291,8	2,233
292,2	-2,367
292,7	-2,767
293,1	7,833
293,6	-16,767
294,1	-0,967
294,5	-12,167
295	0,033
295,5	17,633
295,9	16,033
296,4	42,033
296,8	3,633
297,3	-18,567
297,8	1,433
298,2	-1,767
298,7	5,033
299,1	44,833
299,6	-4,167
300,1	-20,567
300,5	11,633
301	7,233
301,5	5,433
301,9	25,633
302,4	19,633
302,8	8,433
303,3	-14,767
303,8	7,433
304,2	4,233
304,7	36,033
305,1	-5,567
305,6	-10,767
306,1	-21,367
306,5	0,633
307	5,433
307,4	6,433
307,9	-1,367
308,4	33,433
308,8	0,833
309,3	-15,967
309,8	3,433
310,2	10,233
310,7	-8,767
311,1	-6,367
311,6	0,433
312,1	17,433
312,5	24,433
313	-2,767
313,4	19,633
313,9	4,033
314,4	16,833
314,8	17,033
315,3	21,033
315,7	-18,967
316,2	1,033
316,7	-19,167
317,1	18,833
317,6	18,833
318	35,833
318,5	-13,567
319	15,833
319,4	20,433
319,9	7,233
320,3	-0,367
320,8	-3,567
321,3	13,833
321,7	-1,167
322,2	-7,967
322,6	28,433
323,1	32,033
323,6	10,633
324	19,833
324,5	24,033
324,9	-1,967
325,4	21,233
325,9	-26,767
326,3	15,033
326,8	10,433
327,2	-17,567
327,7	18,233
328,2	6,033
328,6	1,233
329,1	24,033
329,5	-20,967
330	24,433
330,5	9,833
330,9	11,833
331,4	-3,367
331,8	-16,367
332,3	14,233
332,8	5,633
333,2	8,633
333,7	1,033
334,1	11,033
334,6	-2,967
335,1	-8,567
335,5	29,633
336	-20,167
336,4	7,633
336,9	16,833
337,4	3,633
337,8	-1,567
338,3	1,033
338,7	9,433
339,2	-29,167
339,7	17,033
340,1	-21,167
340,6	24,233
341	8,633
341,5	-13,367
342	36,833
342,4	0,033
342,9	37,833
343,3	-4,567
343,8	-8,767
344,2	-4,967
344,7	15,633
345,2	14,833
345,6	-33,767
346,1	-6,767
346,5	15,033
347	4,633
347,5	-23,167
347,9	-11,367
348,4	-15,567
348,8	17,033
349,3	8,833
349,8	38,033
350,2	-0,167
350,7	9,433
351,1	-16,367
351,6	7,833
352	15,633
352,5	-7,367
353	-2,367
353,4	16,833
353,9	5,233
354,3	8,833
354,8	28,833
355,3	7,633
355,7	37,033
356,2	32,633
356,6	58,033
357,1	56,633
357,5	66,833
358	97,833
358,5	75,633
358,9	75,833
359,4	103,233
359,8	106,033
360,3	128,233
360,8	161,233
361,2	181,433
361,7	180,033
362,1	234,833
362,6	272,433
363	274,233
363,5	328,233
364	353,233
364,4	391,833
364,9	408,233
365,3	442,833
365,8	493,633
366,3	543,233
366,7	552,833
367,2	609,633
367,6	609,033
368,1	617,433
368,5	678,033
369	649,833
369,5	660,233
369,9	649,833
370,4	634,633
370,8	617,433
371,3	594,833
371,7	593,033
372,2	541,633
372,7	529,833
373,1	506,833
373,6	464,833
374	453,833
374,5	389,033
374,9	381,633
375,4	374,433
375,9	334,233
376,3	291,233
376,8	307,833
377,2	251,833
377,7	259,633
378,2	244,633
378,6	220,433
379,1	162,833
379,5	176,033
380	162,833
380,4	108,033
380,9	111,633
381,4	119,033
381,8	116,433
382,3	129,433
382,7	120,233
383,2	72,433
383,6	111,633
384,1	102,233
384,6	96,033
385	74,233
385,5	96,833
385,9	87,833
386,4	43,433
386,8	55,833
387,3	63,033
387,7	71,433
388,2	52,433
388,7	54,833
389,1	54,433
389,6	34,433
390	60,833
390,5	47,033
390,9	24,633
391,4	46,833
391,9	42,633
392,3	14,033
392,8	13,433
393,2	24,633
393,7	40,233
394,1	31,633
394,6	64,033
395,1	43,633
395,5	5,033
396	13,833
396,4	38,833
396,9	46,433
397,3	17,233
397,8	34,033
398,2	30,033
398,7	17,833
399,2	18,433
399,6	45,433
400,1	13,833
400,5	-1,567
401	7,833
401,4	58,833
401,9	37,633
402,4	29,633
402,8	17,433
403,3	-0,367
403,7	10,633
404,2	25,633
404,6	44,433
405,1	23,033
405,5	29,233
406	29,633
406,5	11,833
406,9	39,033
407,4	39,233
407,8	11,033
408,3	13,633
408,7	13,033
409,2	24,833
409,6	38,633
410,1	32,633
410,6	17,633
411	9,233
411,5	21,433
411,9	13,233
412,4	27,033
412,8	39,433
413,3	15,633
413,7	71,033
414,2	33,833
414,7	35,633
415,1	12,233
415,6	37,633
416	44,033
416,5	45,633
416,9	35,833
417,4	64,233
417,8	58,433
418,3	39,833
418,8	65,033
419,2	35,833
419,7	57,633
420,1	55,433
420,6	73,433
421	52,633
421,5	48,633
421,9	84,833
422,4	67,833
422,8	56,233
423,3	32,633
423,8	72,233
424,2	68,233
424,7	63,233
425,1	66,033
425,6	89,233
426	31,633
426,5	57,033
426,9	43,433
427,4	72,633
427,9	83,233
428,3	50,033
428,8	89,233
429,2	65,433
429,7	70,233
430,1	79,433
430,6	85,633
431	102,433
431,5	84,033
431,9	21,033
432,4	90,633
432,8	63,833
433,3	84,833
433,8	94,633
434,2	89,833
434,7	60,433
435,1	91,233
435,6	118,233
436	90,233
436,5	113,633
436,9	106,433
437,4	116,633
437,8	120,833
438,3	142,633
438,8	130,833
439,2	117,633
439,7	127,633
440,1	138,633
440,6	163,033
441	150,833
441,5	159,833
441,9	186,633
442,4	160,033
442,8	194,233
443,3	170,233
443,7	183,833
444,2	220,233
444,7	211,833
445,1	215,633
445,6	203,833
446	234,833
446,5	257,433
446,9	250,033
447,4	244,033
447,8	278,633
448,3	283,633
448,7	300,633
449,2	305,433
449,6	311,433
450,1	341,833
450,6	332,033
451	354,033
451,5	360,833
451,9	358,033
452,4	369,233
452,8	398,833
453,3	399,833
453,7	426,433
454,2	412,433
454,6	446,633
455,1	454,633
455,5	499,033
456	455,233
456,4	496,833
456,9	510,433
457,3	515,433
457,8	554,433
458,3	562,033
458,7	594,033
459,2	610,833
459,6	597,833
460,1	603,233
460,5	636,833
461	683,033
461,4	699,433
461,9	711,833
462,3	723,233
462,8	744,433
463,2	734,433
463,7	756,233
464,1	807,033
464,6	787,833
465	848,233
465,5	821,833
466	869,433
466,4	904,233
466,9	896,433
467,3	950,633
467,8	938,433
468,2	1018,833
468,7	972,233
469,1	1042,433
469,6	1015,233
470	1039,833
470,5	1071,233
470,9	1121,833
471,4	1085,433
471,8	1143,033
472,3	1153,433
472,7	1169,433
473,2	1217,633
473,6	1219,033
474,1	1195,233
474,5	1296,433
475	1298,233
475,4	1294,833
475,9	1286,833
476,4	1344,233
476,8	1383,233
477,3	1383,233
477,7	1402,633
478,2	1404,833
478,6	1434,033
479,1	1423,033
479,5	1438,633
480	1483,033
480,4	1505,033
480,9	1485,833
481,3	1501,433
481,8	1532,833
482,2	1531,233
482,7	1531,233
483,1	1600,633
483,6	1601,233
484	1588,833
484,5	1600,233
484,9	1607,433
485,4	1651,233
485,8	1644,633
486,3	1648,633
486,7	1662,833
487,2	1703,633
487,6	1702,233
488,1	1686,033
488,5	1712,233
489	1725,033
489,4	1707,433
489,9	1725,433
490,4	1710,633
490,8	1736,433
491,3	1728,433
491,7	1715,033
492,2	1746,233
492,6	1788,033
493,1	1756,833
493,5	1727,233
494	1763,833
494,4	1736,433
494,9	1746,033
495,3	1783,833
495,8	1759,233
496,2	1762,833
496,7	1742,633
497,1	1745,433
497,6	1758,633
498	1738,633
498,5	1707,633
498,9	1743,633
499,4	1754,233
499,8	1702,233
500,3	1742,833
500,7	1735,833
501,2	1701,833
501,6	1737,233
502,1	1677,033
502,5	1688,833
503	1684,633
503,4	1704,833
503,9	1682,033
504,3	1678,233
504,8	1687,033
505,2	1658,633
505,7	1673,433
506,1	1648,433
506,6	1659,033
507	1608,433
507,5	1648,233
507,9	1645,233
508,4	1625,633
508,8	1598,233
509,3	1632,033
509,7	1595,433
510,2	1593,833
510,6	1614,833
511,1	1602,233
511,5	1552,433
512	1555,433
512,4	1558,833
512,9	1545,833
513,3	1538,633
513,8	1528,233
514,2	1490,833
514,7	1531,233
515,1	1526,833
515,6	1516,633
516	1488,633
516,5	1501,833
516,9	1470,833
517,4	1476,233
517,8	1504,033
518,3	1454,633
518,7	1454,833
519,2	1454,833
519,6	1427,633
520,1	1417,833
520,5	1418,833
521	1393,033
521,4	1398,833
521,9	1396,233
522,3	1366,033
522,8	1394,233
523,2	1384,033
523,7	1361,833
524,1	1368,433
524,6	1380,633
525	1370,433
525,5	1340,233
525,9	1387,833
526,4	1356,433
526,8	1324,833
527,3	1336,233
527,7	1332,633
528,2	1328,833
528,6	1303,833
529,1	1306,433
529,5	1321,233
530	1292,433
530,4	1275,833
530,9	1309,833
531,3	1264,233
531,8	1283,033
532,2	1277,233
532,6	1276,233
533,1	1265,833
533,5	1263,433
534	1261,833
534,4	1286,233
534,9	1247,233
535,3	1287,433
535,8	1258,633
536,2	1263,033
536,7	1241,433
537,1	1238,633
537,6	1223,633
538	1260,433
538,5	1241,633
538,9	1255,433
539,4	1219,233
539,8	1235,833
540,3	1214,033
540,7	1210,633
541,2	1209,433
541,6	1202,033
542,1	1213,433
542,5	1174,633
543	1207,033
543,4	1187,033
543,9	1233,033
544,3	1159,233
544,8	1205,833
545,2	1196,833
545,7	1172,633
546,1	1172,033
546,5	1194,033
547	1145,633
547,4	1177,233
547,9	1181,833
548,3	1159,633
548,8	1195,633
549,2	1179,233
549,7	1163,233
550,1	1158,033
550,6	1207,833
551	1196,433
551,5	1170,633
551,9	1167,833
552,4	1121,833
552,8	1153,033
553,3	1200,633
553,7	1163,233
554,2	1131,033
554,6	1152,033
555,1	1160,633
555,5	1147,633
555,9	1103,233
556,4	1158,033
556,8	1150,833
557,3	1166,633
557,7	1113,033
558,2	1115,433
558,6	1105,633
559,1	1131,433
559,5	1130,033
560	1145,033
560,4	1125,233
560,9	1072,433
561,3	1111,633
561,8	1119,233
562,2	1131,233
562,7	1141,433
563,1	1114,833
563,6	1124,433
564	1108,833
564,4	1116,433
564,9	1140,033
565,3	1103,433
565,8	1103,833
566,2	1111,433
566,7	1130,233
567,1	1122,833
567,6	1088,433
568	1117,833
568,5	1090,433
568,9	1101,833
569,4	1103,033
569,8	1114,433
570,3	1121,433
570,7	1095,633
571,1	1085,833
571,6	1078,033
572	1085,033
572,5	1083,633
572,9	1098,633
573,4	1120,833
573,8	1064,033
574,3	1077,833
574,7	1109,633
575,2	1058,033
575,6	1054,233
576,1	1080,433
576,5	1069,633
576,9	1048,433
577,4	1036,833
577,8	1061,033
578,3	1072,233
578,7	1075,033
579,2	1052,433
579,6	1078,233
580,1	1028,033
580,5	1041,033
581	1083,233
581,4	1033,233
581,9	1038,433
582,3	1055,633
582,7	1047,233
583,2	1018,833
583,6	1016,433
584,1	1028,833
584,5	1032,633
585	1017,033
585,4	1024,233
585,9	1032,233
586,3	990,233
586,8	1002,633
587,2	1026,033
587,6	988,433
588,1	1001,633
588,5	1002,833
589	1010,233
589,4	999,633
589,9	978,033
590,3	975,833
590,8	978,233
591,2	987,833
591,7	952,633
592,1	938,433
592,5	979,633
593	947,233
593,4	977,433
593,9	956,833
594,3	948,233
594,8	947,233
595,2	1004,833
595,7	935,433
596,1	933,633
596,6	941,633
597	967,233
597,4	946,033
597,9	934,233
598,3	947,433
598,8	917,233
599,2	904,833
599,7	930,233
600,1	899,433
600,6	945,033
601	954,033
601,4	930,633
601,9	909,833
602,3	912,033
602,8	906,433
603,2	889,633
603,7	889,833
604,1	905,833
604,6	924,033
605	888,833
605,4	866,433
605,9	883,233
606,3	878,433
606,8	915,833
607,2	874,633
607,7	866,233
608,1	860,433
608,6	850,433
609	869,433
609,4	851,033
609,9	857,833
610,3	855,033
610,8	830,233
611,2	856,033
611,7	836,433
612,1	816,233
612,6	824,033
613	829,433
613,4	837,433
613,9	786,033
614,3	803,633
614,8	806,633
615,2	794,833
615,7	802,033
616,1	824,833
616,6	775,833
617	818,033
617,4	780,433
617,9	802,433
618,3	750,433
618,8	766,633
619,2	764,033
619,7	806,433
620,1	766,633
620,5	715,033
621	774,033
621,4	736,833
621,9	744,233
622,3	723,833
622,8	773,633
623,2	730,633
623,6	719,233
624,1	730,433
624,5	737,033
625	741,433
625,4	701,433
625,9	738,033
626,3	704,033
626,8	696,433
627,2	719,033
627,6	685,833
628,1	696,833
628,5	666,433
629	687,233
629,4	677,433
629,9	698,633
630,3	665,633
630,7	689,833
631,2	633,433
631,6	681,433
632,1	670,633
632,5	659,833
633	636,833
633,4	642,633
633,8	638,233
634,3	622,433
634,7	594,833
635,2	653,833
635,6	636,633
636,1	621,433
636,5	648,233
636,9	609,833
637,4	617,433
637,8	570,833
638,3	598,433
638,7	576,633
639,2	584,233
639,6	598,833
640	584,433
640,5	587,433
640,9	568,033
641,4	576,833
641,8	587,033
642,2	574,433
642,7	560,833
643,1	548,633
643,6	547,833
644	537,433
644,5	556,833
644,9	536,833
645,3	580,433
645,8	564,433
646,2	539,233
646,7	521,233
647,1	550,233
647,6	534,433
648	523,433
648,4	516,833
648,9	520,033
649,3	485,033
649,8	504,633
650,2	531,233
650,6	496,033
651,1	522,633
651,5	527,833
652	474,033
652,4	482,033
652,9	481,633
653,3	482,433
653,7	457,633
654,2	492,433
654,6	476,433
655,1	461,433
655,5	484,433
655,9	462,033
656,4	469,633
656,8	497,033
657,3	469,833
657,7	463,433
658,2	459,233
658,6	472,433
659	430,633
659,5	407,233
659,9	428,433
660,4	459,633
660,8	449,633
661,2	437,233
661,7	397,433
662,1	434,833
662,6	426,033
663	387,233
663,4	384,433
663,9	404,833
664,3	416,033
664,8	388,633
665,2	407,633
665,6	409,833
666,1	391,633
666,5	375,833
667	374,633
667,4	381,233
667,9	354,633
668,3	392,633
668,7	375,433
669,2	335,633
669,6	352,633
670,1	351,033
670,5	376,833
670,9	349,233
671,4	348,233
671,8	377,233
672,3	368,633
672,7	364,433
673,1	364,833
673,6	332,633
674	347,433
674,5	338,433
674,9	348,433
675,3	323,833
675,8	330,633
676,2	357,633
676,7	336,233
677,1	339,033
677,5	312,833
678	349,033
678,4	318,433
678,9	322,433
679,3	307,233
679,7	301,233
680,2	300,633
680,6	308,033
681,1	335,833
681,5	297,433
681,9	322,433
682,4	301,833
682,8	304,833
683,3	305,633
683,7	286,633
684,1	301,233
684,6	255,233
685	296,633
685,5	268,033
685,9	298,833
686,3	239,433
686,8	279,633
687,2	274,233
687,7	271,633
688,1	281,433
688,5	265,633
689	259,833
689,4	256,633
689,9	270,433
690,3	264,033
690,7	257,833
691,2	290,233
691,6	262,433
692	231,833
692,5	257,033
692,9	264,233
693,4	251,633
693,8	244,233
694,2	224,633
694,7	256,233
695,1	232,833
695,6	256,033
696	229,633
696,4	230,033
696,9	206,033
697,3	232,433
697,8	224,833
698,2	237,033
698,6	228,833
699,1	244,233
699,5	236,033
699,9	237,233
700,4	229,833
700,8	196,433
701,3	217,233
701,7	227,033
702,1	187,833
702,6	196,033
703	228,433
703,5	198,033
703,9	198,633
704,3	223,233
704,8	205,033
705,2	203,833
705,6	206,433
706,1	196,033
706,5	209,033
707	194,833
707,4	185,633
707,8	180,433
708,3	219,233
708,7	193,833
709,2	198,233
709,6	170,833
710	210,033
710,5	186,233
710,9	182,633
711,3	188,633
711,8	175,033
712,2	158,833
712,7	167,833
713,1	159,433
713,5	176,033
714	184,633
714,4	167,233
714,8	168,833
715,3	168,233
715,7	158,233
716,2	166,433
716,6	152,433
717	143,033
717,5	167,633
717,9	133,433
718,3	131,033
718,8	137,233
719,2	156,033
719,7	156,633
720,1	159,233
720,5	148,433
721	160,633
721,4	144,833
721,8	134,833
722,3	129,033
722,7	147,633
723,2	128,833
723,6	113,233
724	142,833
724,5	110,033
724,9	144,633
725,3	144,233
725,8	122,233
726,2	144,433
726,7	133,833
727,1	134,233
727,5	148,633
728	94,033
728,4	124,633
728,8	157,033
729,3	90,033
729,7	119,233
730,1	126,233
730,6	147,233
731	125,233
731,5	114,033
731,9	114,433
732,3	124,033
732,8	148,833
733,2	117,433
733,6	107,033
734,1	109,433
734,5	139,233
734,9	110,233
735,4	113,033
735,8	125,233
736,3	121,833
736,7	65,433
737,1	109,633
737,6	89,833
738	120,033
738,4	86,233
738,9	119,633
739,3	119,433
739,7	90,833
740,2	96,633
740,6	101,033
741,1	98,433
741,5	97,433
741,9	85,033
742,4	99,233
742,8	101,033
743,2	104,433
743,7	101,433
744,1	90,033
744,5	109,033
745	81,833
745,4	103,233
745,8	103,833
746,3	125,633
746,7	95,433
747,2	99,633
747,6	119,833
748	93,833
748,5	86,633
748,9	75,833
749,3	71,433
749,8	74,433
750,2	88,033
750,6	90,433
751,1	86,433
751,5	101,233
751,9	68,033
752,4	76,233
752,8	87,833
753,3	84,233
753,7	84,033
754,1	78,433
754,6	80,833
755	70,233
755,4	86,033
755,9	85,233
756,3	66,833
756,7	74,033
757,2	83,233
757,6	49,433
758	79,233
758,5	82,433
758,9	54,833
759,3	79,833
759,8	74,833
760,2	69,433
760,6	39,633
761,1	96,033
761,5	81,033
761,9	55,633
762,4	81,833
762,8	69,633
763,3	65,833
763,7	43,633
764,1	66,833
764,6	61,833
765	62,433
765,4	63,033
765,9	75,633
766,3	77,033
766,7	85,033
767,2	63,233
767,6	88,433
768	89,833
768,5	74,833
768,9	55,633
769,3	61,833
769,8	56,633
770,2	47,433
770,6	44,433
771,1	48,033
771,5	67,033
771,9	39,033
772,4	90,433
772,8	68,233
773,2	51,633
773,7	63,633
774,1	84,033
774,5	70,233
775	83,833
775,4	75,233
775,8	49,233
776,3	37,033
776,7	31,633
777,1	56,433
777,6	75,633
778	74,233
778,4	43,233
778,9	70,433
779,3	44,433
779,7	60,433
780,2	57,033
780,6	41,433
781	42,633
781,5	42,833
781,9	45,233
782,3	73,633
782,8	45,233
783,2	34,433
783,6	19,633
784,1	46,233
784,5	58,233
784,9	24,633
785,4	49,833
785,8	73,433
786,2	19,833
786,7	27,433
787,1	66,233
787,5	26,633
788	56,233
788,4	29,233
788,8	58,233
789,3	60,633
789,7	46,833
790,1	52,633
790,6	36,033
791	59,833
791,4	33,233
791,9	20,833
792,3	25,233
792,7	18,033
793,2	33,833
793,6	46,833
794	52,033
794,5	51,833
794,9	20,833
795,3	25,433
795,8	-1,767
796,2	36,433
796,6	28,033
797,1	17,433
797,5	68,433
797,9	34,233
798,4	36,833
798,8	10,833
799,2	48,633
799,7	17,233
800,1	70,033
800,5	34,633
801	37,433
801,4	19,233
801,8	-5,167
802,2	47,833
802,7	42,033
803,1	71,433
803,5	51,033
804	38,833
804,4	18,233
804,8	31,633
805,3	21,233
805,7	4,433
806,1	9,433
806,6	27,233
807	53,033
807,4	32,633
807,9	46,433
808,3	51,833
808,7	45,233
809,2	17,033
809,6	58,233
810	34,633
810,4	51,033
810,9	58,833
811,3	53,433
811,7	6,233
812,2	32,033
812,6	71,633
813	23,033
813,5	26,433
813,9	52,833
814,3	33,433
814,8	18,033
815,2	10,433
815,6	32,233
816,1	11,433
816,5	26,833
816,9	45,433
817,3	14,433
817,8	26,433
818,2	53,033
818,6	39,833
819,1	37,033
819,5	23,233
819,9	51,033
820,4	35,833
820,8	6,633
821,2	37,633
821,7	13,633
822,1	16,633
822,5	22,033
822,9	44,033
823,4	8,633
823,8	37,233
824,2	1,833
824,7	35,633
825,1	16,633
825,5	7,433
826	33,833
826,4	3,833
826,8	26,633
827,3	41,033
827,7	9,833
828,1	2,833
828,5	15,433
829	23,633
829,4	8,433
829,8	34,433
830,3	15,633
830,7	25,233
831,1	41,633
831,6	3,033
832	12,033
832,4	25,433
832,8	6,833
833,3	32,233
833,7	-12,767
834,1	21,833
834,6	1,633
835	20,033
835,4	41,833
835,8	34,433
836,3	38,433
836,7	25,233
837,1	23,033
837,6	17,833
838	45,433
838,4	22,033
838,9	32,433
839,3	42,233
839,7	-11,367
840,1	19,633
840,6	23,233
841	8,633
841,4	-9,567
841,9	26,833
842,3	14,833
842,7	22,233
843,1	28,633
843,6	14,433
844	-6,967
844,4	34,233
844,9	6,433
845,3	-10,367
845,7	24,833
846,2	14,433
846,6	5,233
847	-16,967
847,4	23,233
847,9	26,833
848,3	12,433
848,7	47,033
849,2	15,233
849,6	19,433
850	11,433
850,4	9,633
850,9	24,033
851,3	-1,967
851,7	1,833
852,2	9,033
852,6	-4,767
853	36,633
853,4	21,233
853,9	18,833
854,3	-5,167
854,7	34,833
855,2	-11,367
855,6	21,833
856	30,033
856,4	0,833
856,9	24,833
857,3	34,633
857,7	-23,767
858,2	41,433
858,6	8,633
859	41,033
859,4	13,033
859,9	7,433
860,3	-15,567
860,7	-7,967
861,1	-3,167
861,6	-7,767
862	6,433
862,4	-0,167
862,9	25,833
863,3	2,433
863,7	0,033
864,1	8,833
864,6	32,233
865	19,233
865,4	-0,767
865,9	13,833
866,3	-9,567
866,7	0,433
867,1	4,633
867,6	-14,367
868	26,233
868,4	16,433
868,8	11,633
869,3	4,433
869,7	24,633
870,1	10,633
870,6	-6,367
871	-12,967
871,4	-13,567
871,8	-16,567
872,3	536,033
872,7	-5,367
873,1	-24,567
873,5	24,833
874	24,433
874,4	6,833
874,8	-5,167
875,3	31,033
875,7	3,233
876,1	17,433
876,5	-10,967
877	11,633
877,4	3,033
877,8	14,033
878,2	19,633
878,7	23,833
879,1	25,233
879,5	22,833
879,9	0,633
880,4	34,633
880,8	29,033
881,2	8,833
881,7	15,433
882,1	14,033
882,5	23,833
882,9	11,633
883,4	10,433
883,8	-4,167
884,2	10,833
884,6	5,633
885,1	22,233
885,5	11,833
885,9	0,833
886,3	-7,367
886,8	2,433
887,2	16,433
887,6	-7,767
888	-14,967
888,5	14,833
888,9	24,833
889,3	1,633
889,8	20,633
890,2	15,033
890,6	-16,167
891	-15,567
891,5	-2,167
891,9	12,033
892,3	-6,767
892,7	18,233
893,2	30,833
893,6	16,633
894	14,833
894,4	-0,967
894,9	15,433
895,3	16,633
895,7	-8,167
896,1	-18,767
896,6	13,033
897	14,433
897,4	17,233
897,8	7,233
898,3	31,033
898,7	19,433
899,1	21,833
899,5	3,033
900	26,033
900,4	27,833
900,8	-3,567
901,2	18,433
901,7	15,433
902,1	27,833
902,5	0,633
902,9	19,233
903,4	0,433
903,8	-6,567
904,2	-4,567
904,6	11,833
905,1	11,833
905,5	12,433
905,9	-5,967
906,3	18,633
906,8	33,033
907,2	-32,367
907,6	-13,567
908	-13,967
908,5	3,033
908,9	16,433
909,3	9,233
909,7	-6,767
910,2	8,233
910,6	-14,167
911	-13,967
911,4	-10,767
911,9	-12,567
912,3	-14,567
912,7	-4,967
913,1	9,433
913,6	19,833
914	-2,967
914,4	-4,967
914,8	-19,767
915,3	17,833
915,7	17,033
916,1	27,633
916,5	18,033
916,9	-22,567
917,4	-9,567
917,8	-6,567
918,2	-9,167
918,6	4,233
919,1	-10,367
919,5	33,433
919,9	-6,567
920,3	12,033
920,8	4,433
921,2	-6,767
921,6	31,633
922	5,033
922,5	19,233
922,9	-19,567
923,3	-3,767
923,7	19,033
924,2	-2,367
924,6	7,833
925	21,833
925,4	30,033
925,8	3,433
926,3	-2,767
926,7	11,833
927,1	-3,767
927,5	-22,367
928	4,633
928,4	27,433
928,8	20,833
929,2	-16,367
929,7	39,033
930,1	-4,967
930,5	13,633
930,9	25,833
931,3	12,433
931,8	30,033
932,2	1,633
932,6	-11,767
933	-12,567
933,5	12,433
933,9	-3,567
934,3	-10,367
934,7	-22,767
935,2	-7,367
935,6	-25,167
936	-16,567
936,4	-15,567
936,8	28,033
937,3	4,233
937,7	25,633
938,1	-4,367
938,5	28,033
939	-4,367
939,4	-10,767
939,8	2,633
940,2	8,833
940,6	1,233
941,1	-13,567
941,5	-14,567
941,9	-8,767
942,3	-15,967
942,8	-19,767
943,2	29,633
943,6	-1,167
944	0,433
944,4	-4,767
944,9	-8,367
945,3	-12,567
945,7	-12,567
946,1	-2,967
946,6	-3,567
947	-6,767
947,4	14,633
947,8	15,033
948,2	-2,367
948,7	2,833
949,1	-28,767
949,5	15,833
949,9	26,433
950,3	13,033
950,8	-24,567
951,2	-5,167
951,6	-7,767
952	-20,167
952,5	-7,167
952,9	-14,767
953,3	6,033
953,7	-10,767
954,1	16,033
954,6	-4,367
955	-9,567
955,4	9,633
955,8	9,233
956,2	14,433
956,7	-3,567
957,1	17,033
957,5	-1,367
957,9	-7,967
958,3	29,433
958,8	-4,767
959,2	5,033
959,6	6,033
960	8,033
960,5	-5,167
960,9	-27,767
961,3	3,833
961,7	28,833
962,1	-8,367
962,6	-5,567
963	-30,167
963,4	10,233
963,8	-2,767
964,2	-31,367
964,7	-5,167
965,1	-7,367
965,5	19,633
965,9	9,433
966,3	4,233
966,8	-17,767
967,2	28,433
967,6	13,633
968	-12,767
968,4	1,233
968,9	5,633
969,3	17,433
969,7	0,433
970,1	-17,567
970,5	2,033
971	-3,967
971,4	27,433
971,8	11,433
972,2	5,433
972,6	36,833
973,1	-33,367
973,5	-11,767
973,9	-14,767
974,3	14,033
974,7	8,833
975,2	-5,967
975,6	5,433
976	0,833
976,4	-21,167
976,8	4,033
977,3	-5,167
977,7	6,433
978,1	17,233
978,5	18,433
978,9	17,033
979,4	-8,767
979,8	-2,567
980,2	-5,567
980,6	2,833
981	-9,167
981,5	-5,567
981,9	14,233
982,3	24,233
982,7	15,233
983,1	9,233
983,6	-4,767
984	21,033
984,4	-37,367
984,8	-6,367
985,2	6,433
985,6	-31,167
986,1	-20,767
986,5	9,433
986,9	14,033
987,3	11,033
987,7	-3,167
988,2	2,233
988,6	0,433
989	-5,767
989,4	8,033
989,8	-6,367
990,3	12,633
990,7	-18,767
991,1	19,033
991,5	5,633
991,9	31,033
992,3	13,433
992,8	0,833
993,2	7,633
993,6	17,833
994	-6,567
994,4	1,033
994,9	-10,767
995,3	1,033
995,7	-3,567
996,1	-29,167
996,5	-10,167
996,9	16,833
997,4	5,033
997,8	8,033
998,2	-13,167
998,6	-7,767
999	-11,167
999,5	8,033
999,9	-14,567
1000,3	12,833
1000,7	2,633
1001,1	-9,767
1001,5	-4,367
1002	0,033
1002,4	21,233
1002,8	11,833
1003,2	51,633
1003,6	22,033
1004	5,233
1004,5	-15,967
1004,9	12,433
1005,3	-21,367
1005,7	-9,367
1006,1	13,833
1006,6	15,833
1007	-12,767
1007,4	-1,967
1007,8	28,833
1008,2	14,833
1008,6	24,033
1009,1	5,833
1009,5	18,233
1009,9	-27,767
1010,3	17,433
1010,7	-8,967
1011,1	-10,767
1011,6	28,633
1012	28,833
1012,4	17,433
1012,8	5,233
1013,2	30,433
1013,6	14,833
1014,1	7,633
1014,5	5,233
1014,9	-8,767
1015,3	5,033
1015,7	-6,167
1016,1	-9,167
1016,6	1,233
1017	13,233
1017,4	-16,967
1017,8	14,033
1018,2	30,433
1018,6	-15,967
1019,1	-12,567
1019,5	12,233
1019,9	22,033
1020,3	46,633
1020,7	12,033
1021,1	0,433
1021,6	-10,567
1022	7,033
1022,4	-8,767
1022,8	22,433
1023,2	26,633
1023,6	-24,967
1024,1	-13,167
1024,5	-27,967
1024,9	-5,967
1025,3	-33,967
1025,7	8,033
1026,1	-1,367
1026,6	3,433
1027	5,633
1027,4	18,233
1027,8	8,033
1028,2	-6,767
1028,6	3,433
1029	35,433
1029,5	16,033
1029,9	-15,967
1030,3	16,633
1030,7	2,033
1031,1	-9,167
1031,5	-10,367
1032	-24,567
1032,4	30,233
1032,8	7,033
1033,2	18,833
1033,6	28,433
1034	16,433
1034,4	34,433
1034,9	-12,967
1035,3	-24,167
1035,7	-16,367
1036,1	0,833
1036,5	-13,967
1036,9	-5,967
1037,4	5,033
1037,8	-9,367
1038,2	8,033
1038,6	9,233
1039	11,633
1039,4	19,033
1039,8	0,433
1040,3	-17,567
1040,7	-0,167
1041,1	-20,567
1041,5	5,233
1041,9	3,033
1042,3	-5,367
1042,7	25,033
1043,2	-16,167
1043,6	-3,167
1044	3,433
1044,4	5,833
1044,8	-27,367
1045,2	-26,767
1045,6	11,233
1046,1	-9,767
1046,5	17,233
1046,9	13,633
1047,3	26,033
1047,7	18,033
1048,1	15,633
1048,5	22,633
1049	-12,767
1049,4	-17,967
1049,8	0,233
1050,2	-16,767
1050,6	-9,367
1051	40,033
1051,4	13,633
1051,9	7,233
1052,3	5,033
1052,7	22,633
1053,1	-2,767
1053,5	0,833
1053,9	5,233
1054,3	-4,167
1054,8	9,833
1055,2	21,633
1055,6	4,433
1056	24,833
1056,4	36,233
1056,8	-15,967
1057,2	0,633
1057,6	2,833
1058,1	-29,567
1058,5	12,833
1058,9	39,033
1059,3	28,233
1059,7	4,233
1060,1	-20,567
1060,5	5,033
1061	4,433
1061,4	20,433
1061,8	-11,767
1062,2	-0,967
1062,6	29,233
1063	-25,167
1063,4	8,833
1063,8	-19,767
1064,3	13,033
1064,7	12,233
1065,1	-13,567
1065,5	3,033
1065,9	8,633
1066,3	23,433
1066,7	-3,567
1067,1	-4,367
1067,6	4,833
1068	14,833
1068,4	22,233
1068,8	-18,167
1069,2	26,833
1069,6	18,433
1070	0,633
1070,4	15,033
1070,9	2,833
1071,3	31,033
1071,7	3,433
1072,1	16,433
1072,5	-6,567
1072,9	-3,767
1073,3	-18,367
1073,7	-18,967
1074,2	-12,567
1074,6	-6,167
1075	-2,767
1075,4	12,833
1075,8	21,433
1076,2	-9,167
1076,6	10,833
1077	30,233
1077,5	20,433
1077,9	38,833
1078,3	2,633
1078,7	11,833
1079,1	19,833
1079,5	24,633
1079,9	-13,167
1080,3	-0,767
1080,7	1,233
1081,2	-0,367
1081,6	-1,967
1082	1,633
1082,4	33,833
1082,8	-24,367
1083,2	-13,367
1083,6	-10,367
1084	15,633
1084,5	19,833
1084,9	10,033
1085,3	-2,567
1085,7	40,633
1086,1	-24,367
1086,5	-14,767
1086,9	17,233
1087,3	-18,567
1087,7	17,233
1088,2	-18,567
1088,6	-16,767
1089	12,833
1089,4	-9,167
1089,8	-2,567
1090,2	-12,967
1090,6	-17,367
1091	-3,567
1091,4	-29,567
1091,9	-4,967
1092,3	8,433
1092,7	23,233
1093,1	-7,167
1093,5	11,433
1093,9	-13,767
1094,3	-1,767
1094,7	-21,967
1095,1	-2,967
1095,5	-18,167
1096	34,033
1096,4	-13,767
1096,8	-7,767
1097,2	-1,967
1097,6	12,233
1098	-7,167
1098,4	-24,967
1098,8	12,633
1099,2	-3,967
1099,6	-25,367
1100,1	-34,967
1100,5	-5,567
1100,9	7,433
1101,3	15,833
1101,7	12,033
1102,1	12,433
1102,5	24,433
1102,9	-4,167
1103,3	20,033
1103,7	-25,567
1104,2	-2,767
1104,6	-32,767
1105	19,633
1105,4	10,833
1105,8	17,433
1106,2	24,833
1106,6	8,233
1107	-0,567
1107,4	0,633
1107,8	-0,167
1108,3	0,633
