Data from Subt2_00022.txt Node
Date: Wed Aug 02 19:19:17 MSK 2023
User: vat
Spectrometer: MAYP114033
Trigger mode: 0
Integration Time (sec): 7,000000E-1
Scans to average: 5
Electric dark correction enabled: true
Nonlinearity correction enabled: false
Boxcar width: 0
XAxis mode: Wavelengths
Number of Pixels in Spectrum: 2068
>>>>>Begin Spectral Data<<<<<
199,4	-2,167
199,9	-2,367
200,4	0,433
200,8	-1,767
201,3	-18,167
201,8	-0,567
202,2	-6,967
202,7	20,033
203,2	-0,167
203,6	0,633
204,1	17,233
204,6	29,233
205	-3,567
205,5	23,633
206	24,833
206,4	-10,767
206,9	3,633
207,4	-1,167
207,8	0,233
208,3	16,233
208,8	-31,567
209,2	11,033
209,7	-0,967
210,2	22,433
210,6	-0,567
211,1	3,233
211,5	-10,767
212	-4,167
212,5	19,433
212,9	-1,167
213,4	-20,367
213,9	2,033
214,3	-6,767
214,8	47,633
215,3	34,633
215,7	-4,967
216,2	-0,367
216,7	11,433
217,1	-0,767
217,6	2,433
218,1	53,233
218,5	9,233
219	21,633
219,5	16,233
219,9	4,433
220,4	47,033
220,9	0,633
221,3	15,633
221,8	1,833
222,3	5,033
222,7	12,233
223,2	21,433
223,6	-0,167
224,1	9,833
224,6	2,633
225	-12,367
225,5	-2,967
226	35,833
226,4	10,433
226,9	18,433
227,4	9,233
227,8	12,033
228,3	-4,367
228,8	12,833
229,2	0,633
229,7	32,233
230,2	-20,167
230,6	-1,967
231,1	18,633
231,5	18,633
232	3,033
232,5	-17,567
232,9	-19,167
233,4	17,433
233,9	30,833
234,3	6,833
234,8	25,833
235,3	14,233
235,7	30,033
236,2	16,633
236,7	9,033
237,1	35,833
237,6	-11,167
238,1	-0,967
238,5	2,233
239	29,033
239,4	-25,167
239,9	-2,967
240,4	34,833
240,8	-9,167
241,3	27,433
241,8	20,833
242,2	7,033
242,7	26,233
243,2	12,033
243,6	-0,967
244,1	-27,967
244,6	14,633
245	-15,767
245,5	13,833
245,9	-9,567
246,4	-3,567
246,9	22,433
247,3	-24,767
247,8	5,633
248,3	-25,167
248,7	19,233
249,2	4,233
249,7	-12,967
250,1	41,633
250,6	-7,167
251	5,033
251,5	-10,167
252	-4,567
252,4	-12,367
252,9	3,633
253,4	-12,367
253,8	-0,367
254,3	2,833
254,8	-0,767
255,2	27,033
255,7	0,833
256,1	2,833
256,6	19,433
257,1	-28,167
257,5	20,233
258	18,033
258,5	3,833
258,9	-1,167
259,4	-1,567
259,9	0,433
260,3	-10,567
260,8	19,433
261,2	29,633
261,7	-23,567
262,2	-7,567
262,6	14,233
263,1	31,433
263,6	30,033
264	-24,767
264,5	9,833
264,9	29,233
265,4	18,433
265,9	21,033
266,3	36,833
266,8	-6,367
267,3	10,033
267,7	-0,167
268,2	23,433
268,7	1,033
269,1	27,633
269,6	27,033
270	4,833
270,5	5,233
271	5,233
271,4	19,033
271,9	2,233
272,4	7,033
272,8	-24,167
273,3	25,433
273,7	-6,567
274,2	-35,967
274,7	15,033
275,1	1,833
275,6	36,233
276,1	-15,967
276,5	-16,167
277	16,433
277,4	24,033
277,9	5,433
278,4	23,833
278,8	-20,167
279,3	-8,567
279,8	19,633
280,2	5,633
280,7	-18,967
281,1	6,633
281,6	-11,767
282,1	2,233
282,5	10,833
283	17,633
283,4	17,233
283,9	34,033
284,4	-7,167
284,8	16,233
285,3	25,233
285,8	12,033
286,2	9,033
286,7	12,233
287,1	-28,167
287,6	-6,767
288,1	11,033
288,5	2,833
289	4,433
289,5	39,833
289,9	44,433
290,4	-5,167
290,8	24,433
291,3	-0,567
291,8	17,033
292,2	17,833
292,7	16,233
293,1	-2,767
293,6	0,033
294,1	20,633
294,5	-15,967
295	7,433
295,5	8,833
295,9	-0,567
296,4	4,033
296,8	0,033
297,3	11,633
297,8	15,233
298,2	9,033
298,7	18,633
299,1	-2,567
299,6	4,633
300,1	25,233
300,5	16,433
301	18,633
301,5	-1,167
301,9	38,433
302,4	-12,567
302,8	0,833
303,3	32,833
303,8	5,033
304,2	-1,967
304,7	0,433
305,1	-0,567
305,6	14,033
306,1	-1,167
306,5	5,233
307	19,433
307,4	12,033
307,9	3,633
308,4	-7,967
308,8	-5,167
309,3	20,033
309,8	0,433
310,2	15,833
310,7	50,033
311,1	9,833
311,6	20,633
312,1	0,833
312,5	-11,167
313	-3,767
313,4	16,633
313,9	27,433
314,4	18,633
314,8	31,233
315,3	4,033
315,7	3,833
316,2	2,233
316,7	6,033
317,1	-14,967
317,6	-8,567
318	24,833
318,5	-4,767
319	25,033
319,4	15,033
319,9	13,233
320,3	-2,567
320,8	15,233
321,3	-31,167
321,7	28,633
322,2	20,833
322,6	13,233
323,1	29,033
323,6	3,633
324	3,633
324,5	45,433
324,9	-1,167
325,4	-4,367
325,9	29,033
326,3	19,033
326,8	24,433
327,2	24,833
327,7	33,033
328,2	8,633
328,6	24,833
329,1	-9,967
329,5	13,233
330	-0,967
330,5	-12,567
330,9	40,233
331,4	-32,367
331,8	23,233
332,3	7,633
332,8	4,233
333,2	26,833
333,7	-2,967
334,1	22,633
334,6	16,833
335,1	2,233
335,5	-0,167
336	12,233
336,4	-13,367
336,9	32,033
337,4	2,033
337,8	-18,767
338,3	10,633
338,7	13,433
339,2	11,833
339,7	-8,767
340,1	-3,967
340,6	31,033
341	49,233
341,5	-2,967
342	-6,367
342,4	-20,367
342,9	-27,567
343,3	12,833
343,8	26,833
344,2	-2,967
344,7	6,233
345,2	26,433
345,6	-1,567
346,1	3,233
346,5	16,033
347	16,233
347,5	10,033
347,9	26,433
348,4	21,633
348,8	14,633
349,3	20,233
349,8	36,633
350,2	7,833
350,7	23,433
351,1	38,633
351,6	-3,367
352	7,433
352,5	-12,767
353	-4,767
353,4	-5,167
353,9	40,033
354,3	25,233
354,8	28,633
355,3	33,233
355,7	38,233
356,2	40,433
356,6	29,833
357,1	57,633
357,5	69,633
358	61,233
358,5	90,633
358,9	81,433
359,4	111,633
359,8	125,233
360,3	147,433
360,8	155,633
361,2	185,633
361,7	201,833
362,1	214,033
362,6	251,633
363	283,033
363,5	330,033
364	370,633
364,4	409,633
364,9	441,233
365,3	469,033
365,8	486,433
366,3	579,033
366,7	556,833
367,2	665,033
367,6	607,233
368,1	666,033
368,5	668,833
369	685,033
369,5	678,033
369,9	690,833
370,4	679,233
370,8	660,833
371,3	618,033
371,7	594,433
372,2	615,633
372,7	556,633
373,1	536,033
373,6	515,233
374	474,433
374,5	428,033
374,9	384,033
375,4	380,633
375,9	371,033
376,3	291,833
376,8	295,033
377,2	286,633
377,7	265,233
378,2	246,633
378,6	209,033
379,1	186,233
379,5	178,633
380	177,233
380,4	130,433
380,9	116,833
381,4	123,633
381,8	114,833
382,3	114,233
382,7	120,033
383,2	114,033
383,6	100,633
384,1	86,033
384,6	110,633
385	79,833
385,5	67,033
385,9	98,633
386,4	52,033
386,8	47,433
387,3	16,833
387,7	79,433
388,2	33,633
388,7	67,633
389,1	51,833
389,6	44,233
390	43,633
390,5	82,233
390,9	39,633
391,4	38,833
391,9	6,033
392,3	61,433
392,8	45,633
393,2	42,033
393,7	51,833
394,1	34,433
394,6	46,033
395,1	28,833
395,5	44,033
396	30,233
396,4	56,233
396,9	22,633
397,3	24,033
397,8	35,633
398,2	35,433
398,7	31,033
399,2	48,833
399,6	39,833
400,1	20,833
400,5	35,233
401	39,033
401,4	32,833
401,9	52,833
402,4	56,233
402,8	44,633
403,3	35,433
403,7	24,233
404,2	61,033
404,6	77,833
405,1	13,433
405,5	29,433
406	61,033
406,5	20,033
406,9	44,233
407,4	49,233
407,8	38,633
408,3	58,433
408,7	62,833
409,2	31,433
409,6	41,233
410,1	46,433
410,6	79,433
411	56,233
411,5	59,233
411,9	66,433
412,4	68,833
412,8	72,233
413,3	80,233
413,7	57,033
414,2	72,233
414,7	55,633
415,1	64,233
415,6	69,433
416	90,633
416,5	85,833
416,9	84,433
417,4	84,433
417,8	84,633
418,3	105,433
418,8	107,033
419,2	98,433
419,7	108,433
420,1	85,233
420,6	95,633
421	126,633
421,5	112,233
421,9	92,633
422,4	102,633
422,8	116,833
423,3	133,633
423,8	135,433
424,2	115,633
424,7	160,633
425,1	145,033
425,6	163,433
426	153,433
426,5	169,633
426,9	184,633
427,4	201,833
427,9	175,033
428,3	188,833
428,8	176,833
429,2	193,433
429,7	213,233
430,1	201,033
430,6	264,833
431	226,433
431,5	229,633
431,9	245,633
432,4	247,433
432,8	258,433
433,3	274,233
433,8	273,433
434,2	290,233
434,7	298,433
435,1	277,033
435,6	327,433
436	322,833
436,5	347,233
436,9	349,033
437,4	387,833
437,8	388,033
438,3	405,833
438,8	441,833
439,2	419,233
439,7	445,033
440,1	454,433
440,6	468,033
441	515,833
441,5	528,033
441,9	563,833
442,4	575,033
442,8	582,033
443,3	588,033
443,7	601,433
444,2	641,833
444,7	646,633
445,1	704,233
445,6	749,633
446	707,633
446,5	793,833
446,9	799,433
447,4	820,433
447,8	826,233
448,3	846,033
448,7	905,433
449,2	911,233
449,6	934,633
450,1	990,833
450,6	1006,633
451	1038,433
451,5	1062,833
451,9	1060,033
452,4	1090,433
452,8	1126,633
453,3	1136,833
453,7	1209,233
454,2	1234,233
454,6	1282,833
455,1	1297,433
455,5	1341,233
456	1376,433
456,4	1397,833
456,9	1439,433
457,3	1452,833
457,8	1496,033
458,3	1537,433
458,7	1561,033
459,2	1645,033
459,6	1645,833
460,1	1692,633
460,5	1740,233
461	1746,833
461,4	1777,433
461,9	1830,233
462,3	1835,633
462,8	1860,833
463,2	1921,033
463,7	1974,633
464,1	1959,833
464,6	2012,833
465	2033,033
465,5	2084,633
466	2095,633
466,4	2102,433
466,9	2170,233
467,3	2191,233
467,8	2226,233
468,2	2298,033
468,7	2320,233
469,1	2361,233
469,6	2341,233
470	2366,833
470,5	2425,633
470,9	2478,833
471,4	2517,433
471,8	2478,033
472,3	2545,433
472,7	2556,233
473,2	2596,633
473,6	2618,233
474,1	2626,833
474,5	2695,033
475	2650,633
475,4	2725,633
475,9	2726,033
476,4	2807,833
476,8	2787,233
477,3	2819,433
477,7	2843,233
478,2	2847,433
478,6	2876,833
479,1	2919,033
479,5	2921,633
480	2972,433
480,4	2936,233
480,9	2940,833
481,3	2992,833
481,8	3026,633
482,2	3038,033
482,7	3029,233
483,1	3055,433
483,6	3052,033
484	3042,633
484,5	3080,233
484,9	3073,833
485,4	3105,233
485,8	3114,833
486,3	3079,233
486,7	3140,633
487,2	3075,433
487,6	3077,033
488,1	3138,433
488,5	3134,433
489	3141,433
489,4	3120,233
489,9	3173,633
490,4	3150,633
490,8	3156,033
491,3	3157,433
491,7	3146,633
492,2	3167,233
492,6	3133,033
493,1	3137,633
493,5	3191,233
494	3141,233
494,4	3145,233
494,9	3104,033
495,3	3129,233
495,8	3128,433
496,2	3107,433
496,7	3062,633
497,1	3135,833
497,6	3079,033
498	3061,433
498,5	3091,233
498,9	3065,633
499,4	3057,633
499,8	3052,433
500,3	3071,833
500,7	3036,633
501,2	3037,433
501,6	3004,433
502,1	3022,233
502,5	3015,633
503	2992,633
503,4	2956,033
503,9	2965,233
504,3	2944,233
504,8	2901,633
505,2	2975,433
505,7	2942,633
506,1	2918,433
506,6	2884,433
507	2847,833
507,5	2865,033
507,9	2840,033
508,4	2827,833
508,8	2820,633
509,3	2814,633
509,7	2783,633
510,2	2789,633
510,6	2752,033
511,1	2770,633
511,5	2753,633
512	2742,633
512,4	2746,633
512,9	2672,233
513,3	2653,633
513,8	2674,633
514,2	2621,433
514,7	2650,833
515,1	2648,633
515,6	2606,833
516	2588,633
516,5	2538,433
516,9	2568,633
517,4	2579,033
517,8	2544,233
518,3	2529,433
518,7	2499,033
519,2	2467,633
519,6	2446,833
520,1	2506,433
520,5	2433,233
521	2387,233
521,4	2425,633
521,9	2392,033
522,3	2391,433
522,8	2382,233
523,2	2363,433
523,7	2341,633
524,1	2358,433
524,6	2305,633
525	2286,833
525,5	2264,033
525,9	2260,633
526,4	2264,833
526,8	2263,433
527,3	2243,833
527,7	2219,433
528,2	2216,433
528,6	2222,833
529,1	2185,633
529,5	2185,633
530	2158,433
530,4	2154,233
530,9	2166,233
531,3	2148,633
531,8	2125,433
532,2	2091,033
532,6	2054,833
533,1	2084,633
533,5	2052,233
534	2058,233
534,4	2033,433
534,9	2045,833
535,3	2029,833
535,8	2038,433
536,2	2024,633
536,7	1997,633
537,1	1989,833
537,6	2008,433
538	1978,633
538,5	1942,833
538,9	1978,233
539,4	1939,033
539,8	1896,033
540,3	1929,633
540,7	1919,033
541,2	1877,433
541,6	1873,433
542,1	1869,433
542,5	1903,033
543	1880,033
543,4	1847,433
543,9	1865,233
544,3	1860,233
544,8	1862,433
545,2	1862,833
545,7	1832,833
546,1	1819,233
546,5	1796,433
547	1755,833
547,4	1766,033
547,9	1799,833
548,3	1794,033
548,8	1764,033
549,2	1814,233
549,7	1774,433
550,1	1761,633
550,6	1720,833
551	1748,033
551,5	1724,033
551,9	1712,633
552,4	1728,433
552,8	1714,033
553,3	1693,233
553,7	1684,233
554,2	1688,033
554,6	1691,433
555,1	1720,033
555,5	1718,633
555,9	1695,633
556,4	1646,833
556,8	1669,433
557,3	1673,033
557,7	1634,233
558,2	1655,233
558,6	1651,233
559,1	1652,033
559,5	1619,633
560	1652,233
560,4	1575,633
560,9	1641,833
561,3	1592,433
561,8	1594,233
562,2	1595,033
562,7	1567,633
563,1	1598,833
563,6	1562,233
564	1563,633
564,4	1567,833
564,9	1584,433
565,3	1593,433
565,8	1523,833
566,2	1563,433
566,7	1549,833
567,1	1516,433
567,6	1538,433
568	1533,233
568,5	1532,433
568,9	1536,433
569,4	1520,033
569,8	1518,633
570,3	1530,233
570,7	1482,833
571,1	1491,033
571,6	1472,633
572	1487,033
572,5	1477,233
572,9	1475,233
573,4	1473,633
573,8	1471,233
574,3	1484,233
574,7	1454,233
575,2	1442,433
575,6	1436,233
576,1	1427,033
576,5	1407,433
576,9	1467,833
577,4	1455,033
577,8	1412,833
578,3	1420,833
578,7	1412,033
579,2	1395,433
579,6	1383,433
580,1	1415,233
580,5	1395,433
581	1393,633
581,4	1345,833
581,9	1394,633
582,3	1368,233
582,7	1360,233
583,2	1348,233
583,6	1362,233
584,1	1317,433
584,5	1333,433
585	1314,633
585,4	1284,233
585,9	1292,633
586,3	1293,833
586,8	1298,433
587,2	1289,233
587,6	1323,433
588,1	1307,633
588,5	1280,633
589	1269,033
589,4	1265,033
589,9	1257,633
590,3	1250,833
590,8	1245,633
591,2	1260,233
591,7	1252,433
592,1	1277,833
592,5	1251,233
593	1224,433
593,4	1265,433
593,9	1210,433
594,3	1197,633
594,8	1246,033
595,2	1181,433
595,7	1195,033
596,1	1194,633
596,6	1241,433
597	1200,833
597,4	1208,033
597,9	1172,433
598,3	1180,433
598,8	1157,433
599,2	1165,033
599,7	1193,833
600,1	1138,433
600,6	1142,033
601	1185,433
601,4	1204,433
601,9	1148,233
602,3	1138,233
602,8	1149,233
603,2	1105,033
603,7	1114,833
604,1	1114,633
604,6	1108,233
605	1117,633
605,4	1114,033
605,9	1119,033
606,3	1101,233
606,8	1090,233
607,2	1112,433
607,7	1107,033
608,1	1113,433
608,6	1064,033
609	1064,233
609,4	1055,833
609,9	1064,633
610,3	1075,033
610,8	1062,033
611,2	1052,033
611,7	1045,433
612,1	1012,833
612,6	1024,233
613	1034,033
613,4	998,833
613,9	1004,433
614,3	1024,833
614,8	1011,233
615,2	992,033
615,7	1022,833
616,1	1012,033
616,6	1016,233
617	1006,833
617,4	986,033
617,9	971,833
618,3	977,233
618,8	952,433
619,2	954,633
619,7	954,633
620,1	932,433
620,5	947,833
621	932,833
621,4	919,433
621,9	926,433
622,3	907,633
622,8	921,033
623,2	929,833
623,6	929,033
624,1	946,833
624,5	899,033
625	888,833
625,4	875,233
625,9	886,233
626,3	824,033
626,8	873,033
627,2	841,233
627,6	874,233
628,1	862,633
628,5	859,633
629	836,433
629,4	839,433
629,9	847,233
630,3	808,233
630,7	822,033
631,2	790,433
631,6	840,433
632,1	802,833
632,5	821,233
633	790,233
633,4	819,633
633,8	785,833
634,3	753,433
634,7	776,233
635,2	779,633
635,6	773,033
636,1	750,033
636,5	729,433
636,9	779,633
637,4	749,833
637,8	760,633
638,3	765,233
638,7	726,233
639,2	711,233
639,6	753,433
640	721,833
640,5	736,833
640,9	713,233
641,4	696,433
641,8	734,433
642,2	702,033
642,7	703,033
643,1	710,433
643,6	654,233
644	702,433
644,5	662,233
644,9	710,033
645,3	707,233
645,8	702,233
646,2	670,433
646,7	650,433
647,1	651,633
647,6	648,233
648	690,833
648,4	629,633
648,9	626,433
649,3	656,433
649,8	651,833
650,2	667,233
650,6	624,233
651,1	614,433
651,5	660,233
652	609,233
652,4	647,033
652,9	648,833
653,3	610,233
653,7	633,833
654,2	594,033
654,6	610,033
655,1	607,033
655,5	620,233
655,9	575,433
656,4	624,233
656,8	572,233
657,3	599,833
657,7	592,633
658,2	560,233
658,6	560,033
659	564,633
659,5	557,633
659,9	544,033
660,4	527,633
660,8	540,833
661,2	567,233
661,7	545,433
662,1	570,833
662,6	513,033
663	516,033
663,4	525,833
663,9	529,033
664,3	496,033
664,8	530,433
665,2	520,833
665,6	514,833
666,1	501,833
666,5	493,233
667	539,033
667,4	494,033
667,9	496,633
668,3	474,233
668,7	510,233
669,2	493,233
669,6	480,233
670,1	466,633
670,5	493,433
670,9	467,033
671,4	480,033
671,8	450,833
672,3	484,833
672,7	461,033
673,1	473,433
673,6	468,233
674	443,233
674,5	447,633
674,9	475,833
675,3	456,233
675,8	441,433
676,2	447,233
676,7	441,633
677,1	439,033
677,5	454,633
678	431,233
678,4	437,633
678,9	424,033
679,3	426,033
679,7	391,633
680,2	418,833
680,6	384,433
681,1	414,633
681,5	415,833
681,9	400,433
682,4	381,233
682,8	403,633
683,3	372,033
683,7	424,033
684,1	390,633
684,6	403,633
685	376,033
685,5	359,633
685,9	383,633
686,3	381,233
686,8	358,233
687,2	390,433
687,7	383,633
688,1	352,833
688,5	360,833
689	369,833
689,4	348,633
689,9	377,433
690,3	345,833
690,7	363,033
691,2	360,633
691,6	317,233
692	329,833
692,5	340,233
692,9	325,433
693,4	318,633
693,8	345,233
694,2	337,433
694,7	359,033
695,1	341,233
695,6	325,833
696	321,233
696,4	309,233
696,9	298,833
697,3	316,433
697,8	324,033
698,2	326,633
698,6	330,833
699,1	315,433
699,5	280,233
699,9	292,433
700,4	315,233
700,8	290,833
701,3	305,233
701,7	292,633
702,1	293,033
702,6	296,033
703	299,433
703,5	277,433
703,9	312,633
704,3	277,833
704,8	286,233
705,2	311,233
705,6	283,633
706,1	271,833
706,5	288,233
707	262,033
707,4	239,033
707,8	285,433
708,3	247,033
708,7	260,633
709,2	254,633
709,6	277,833
710	273,433
710,5	231,233
710,9	286,633
711,3	243,433
711,8	219,233
712,2	260,833
712,7	241,233
713,1	250,433
713,5	239,833
714	258,633
714,4	245,033
714,8	252,233
715,3	230,233
715,7	213,233
716,2	215,233
716,6	219,233
717	212,033
717,5	243,633
717,9	243,433
718,3	225,033
718,8	228,433
719,2	253,233
719,7	221,433
720,1	257,433
720,5	179,433
721	203,833
721,4	218,233
721,8	208,033
722,3	198,833
722,7	199,033
723,2	231,833
723,6	210,433
724	191,633
724,5	210,833
724,9	176,233
725,3	216,033
725,8	195,833
726,2	217,433
726,7	193,633
727,1	204,233
727,5	215,633
728	173,633
728,4	192,033
728,8	183,233
729,3	185,233
729,7	209,033
730,1	198,233
730,6	199,233
731	164,633
731,5	165,633
731,9	162,233
732,3	159,233
732,8	156,033
733,2	170,033
733,6	135,833
734,1	175,433
734,5	165,633
734,9	170,433
735,4	162,233
735,8	167,233
736,3	169,833
736,7	175,433
737,1	144,833
737,6	153,433
738	157,633
738,4	162,833
738,9	155,633
739,3	146,833
739,7	144,833
740,2	164,433
740,6	150,233
741,1	172,833
741,5	168,433
741,9	147,833
742,4	142,833
742,8	168,033
743,2	149,433
743,7	145,033
744,1	148,233
744,5	129,433
745	93,033
745,4	162,033
745,8	131,033
746,3	129,433
746,7	177,233
747,2	162,233
747,6	139,633
748	134,833
748,5	170,833
748,9	171,033
749,3	136,433
749,8	147,233
750,2	159,433
750,6	125,633
751,1	125,833
751,5	151,233
751,9	136,633
752,4	149,433
752,8	125,833
753,3	132,833
753,7	114,633
754,1	135,633
754,6	135,433
755	136,233
755,4	133,833
755,9	140,033
756,3	110,633
756,7	117,433
757,2	149,433
757,6	116,033
758	117,233
758,5	100,633
758,9	93,633
759,3	115,433
759,8	109,233
760,2	106,433
760,6	105,233
761,1	120,633
761,5	95,833
761,9	154,833
762,4	74,433
762,8	92,233
763,3	110,833
763,7	113,833
764,1	110,033
764,6	73,633
765	90,633
765,4	114,233
765,9	129,433
766,3	95,433
766,7	94,633
767,2	97,433
767,6	141,433
768	103,033
768,5	104,633
768,9	101,433
769,3	98,833
769,8	89,033
770,2	111,033
770,6	119,833
771,1	88,433
771,5	141,833
771,9	80,233
772,4	82,433
772,8	101,233
773,2	88,033
773,7	84,633
774,1	80,033
774,5	112,033
775	92,033
775,4	86,233
775,8	58,433
776,3	98,633
776,7	90,633
777,1	92,033
777,6	86,833
778	115,233
778,4	84,833
778,9	87,433
779,3	30,633
779,7	86,433
780,2	110,233
780,6	65,433
781	84,633
781,5	65,633
781,9	91,233
782,3	112,233
782,8	69,833
783,2	75,633
783,6	102,833
784,1	116,633
784,5	69,633
784,9	118,833
785,4	70,633
785,8	69,833
786,2	104,033
786,7	69,633
787,1	99,233
787,5	68,833
788	74,033
788,4	80,233
788,8	50,033
789,3	49,033
789,7	73,033
790,1	37,233
790,6	73,633
791	75,633
791,4	44,633
791,9	98,033
792,3	94,233
792,7	86,033
793,2	82,833
793,6	67,833
794	84,833
794,5	62,233
794,9	71,033
795,3	66,833
795,8	52,833
796,2	42,833
796,6	47,233
797,1	71,033
797,5	57,633
797,9	43,233
798,4	58,033
798,8	74,033
799,2	53,633
799,7	57,033
800,1	83,633
800,5	82,033
801	41,633
801,4	65,833
801,8	81,433
802,2	56,233
802,7	65,833
803,1	70,233
803,5	45,833
804	52,833
804,4	75,433
804,8	49,033
805,3	34,233
805,7	31,633
806,1	64,433
806,6	76,033
807	28,633
807,4	53,433
807,9	78,233
808,3	39,633
808,7	65,833
809,2	33,633
809,6	51,233
810	38,233
810,4	30,633
810,9	40,633
811,3	60,433
811,7	59,233
812,2	38,233
812,6	70,033
813	35,033
813,5	54,033
813,9	34,433
814,3	56,233
814,8	52,833
815,2	62,233
815,6	48,633
816,1	20,833
816,5	80,833
816,9	48,633
817,3	37,233
817,8	16,233
818,2	26,433
818,6	69,833
819,1	32,633
819,5	30,633
819,9	58,433
820,4	61,633
820,8	41,033
821,2	26,833
821,7	18,633
822,1	37,233
822,5	51,033
822,9	43,033
823,4	46,433
823,8	52,433
824,2	86,233
824,7	38,033
825,1	31,633
825,5	49,833
826	35,633
826,4	36,433
826,8	67,633
827,3	43,233
827,7	19,233
828,1	44,233
828,5	52,833
829	32,033
829,4	33,433
829,8	20,833
830,3	34,233
830,7	21,633
831,1	30,033
831,6	62,633
832	82,833
832,4	29,833
832,8	40,633
833,3	25,233
833,7	42,633
834,1	39,033
834,6	40,633
835	28,433
835,4	35,433
835,8	61,033
836,3	72,633
836,7	37,033
837,1	36,433
837,6	32,233
838	40,033
838,4	33,033
838,9	18,233
839,3	36,233
839,7	33,633
840,1	29,833
840,6	54,433
841	51,833
841,4	40,033
841,9	12,033
842,3	53,633
842,7	20,633
843,1	47,033
843,6	39,633
844	61,433
844,4	31,433
844,9	32,233
845,3	32,233
845,7	16,033
846,2	40,633
846,6	49,033
847	27,433
847,4	43,433
847,9	37,433
848,3	30,633
848,7	52,833
849,2	31,633
849,6	9,033
850	19,433
850,4	37,233
850,9	23,633
851,3	19,633
851,7	48,233
852,2	58,433
852,6	26,833
853	6,433
853,4	50,033
853,9	16,233
854,3	15,833
854,7	22,833
855,2	21,033
855,6	-19,767
856	36,233
856,4	35,633
856,9	24,033
857,3	27,633
857,7	46,433
858,2	21,033
858,6	28,633
859	31,833
859,4	1,433
859,9	14,033
860,3	20,833
860,7	54,633
861,1	24,033
861,6	3,433
862	30,833
862,4	58,033
862,9	18,633
863,3	8,433
863,7	51,233
864,1	13,233
864,6	7,033
865	65,033
865,4	31,633
865,9	4,633
866,3	10,233
866,7	25,633
867,1	25,033
867,6	26,633
868	27,233
868,4	11,633
868,8	2,233
869,3	54,833
869,7	3,233
870,1	4,233
870,6	24,433
871	12,233
871,4	33,033
871,8	-3,967
872,3	31,233
872,7	7,433
873,1	9,633
873,5	26,633
874	37,033
874,4	37,833
874,8	4,633
875,3	12,833
875,7	6,633
876,1	31,233
876,5	14,433
877	9,233
877,4	28,633
877,8	27,433
878,2	29,633
878,7	35,633
879,1	28,633
879,5	28,633
879,9	11,433
880,4	43,833
880,8	29,433
881,2	28,233
881,7	8,633
882,1	-5,167
882,5	27,033
882,9	20,033
883,4	6,433
883,8	11,033
884,2	-4,767
884,6	12,233
885,1	-6,167
885,5	38,833
885,9	1,633
886,3	31,033
886,8	20,033
887,2	-15,167
887,6	28,633
888	5,033
888,5	12,033
888,9	32,633
889,3	14,433
889,8	12,433
890,2	15,033
890,6	1,833
891	-14,167
891,5	19,833
891,9	26,033
892,3	27,233
892,7	29,433
893,2	10,633
893,6	3,233
894	18,033
894,4	-19,167
894,9	10,633
895,3	12,633
895,7	37,233
896,1	38,033
896,6	9,033
897	28,233
897,4	-7,367
897,8	7,633
898,3	-1,767
898,7	26,633
899,1	-5,167
899,5	24,833
900	30,233
900,4	-15,767
900,8	17,233
901,2	-12,167
901,7	26,633
902,1	-2,567
902,5	19,033
902,9	14,833
903,4	-3,367
903,8	-4,367
904,2	8,233
904,6	-5,367
905,1	2,033
905,5	15,433
905,9	-10,367
906,3	24,233
906,8	-6,767
907,2	19,433
907,6	-31,167
908	21,633
908,5	-6,367
908,9	19,033
909,3	4,233
909,7	26,633
910,2	24,033
910,6	-3,167
911	28,633
911,4	11,233
911,9	-0,567
912,3	9,633
912,7	32,833
913,1	18,833
913,6	33,033
914	4,433
914,4	17,033
914,8	21,033
915,3	21,633
915,7	13,033
916,1	41,433
916,5	1,633
916,9	-10,367
917,4	-14,967
917,8	24,433
918,2	20,033
918,6	14,033
919,1	-2,167
919,5	-4,367
919,9	15,633
920,3	31,033
920,8	21,033
921,2	-9,567
921,6	-15,567
922	10,633
922,5	14,633
922,9	3,233
923,3	24,633
923,7	33,633
924,2	10,033
924,6	9,633
925	16,233
925,4	0,633
925,8	9,833
926,3	5,233
926,7	17,233
927,1	4,033
927,5	-23,767
928	9,233
928,4	4,233
928,8	5,433
929,2	10,633
929,7	17,433
930,1	18,633
930,5	-5,767
930,9	-4,767
931,3	-5,967
931,8	-17,767
932,2	39,033
932,6	2,233
933	6,033
933,5	40,633
933,9	-18,767
934,3	22,033
934,7	13,433
935,2	34,033
935,6	2,833
936	-21,567
936,4	-5,567
936,8	25,033
937,3	21,433
937,7	2,633
938,1	22,633
938,5	27,833
939	3,633
939,4	13,033
939,8	12,633
940,2	-1,367
940,6	18,833
941,1	-4,767
941,5	28,833
941,9	-1,167
942,3	33,433
942,8	3,433
943,2	8,033
943,6	-7,767
944	-11,767
944,4	27,233
944,9	10,033
945,3	27,633
945,7	-2,567
946,1	1,033
946,6	10,833
947	-25,767
947,4	2,833
947,8	-2,567
948,2	8,433
948,7	7,033
949,1	17,833
949,5	8,633
949,9	-3,167
950,3	25,233
950,8	5,633
951,2	8,833
951,6	-2,967
952	28,233
952,5	4,233
952,9	1,833
953,3	12,633
953,7	28,033
954,1	20,833
954,6	-7,567
955	5,433
955,4	-7,367
955,8	14,833
956,2	54,233
956,7	7,033
957,1	30,233
957,5	15,433
957,9	50,633
958,3	18,833
958,8	-7,767
959,2	5,833
959,6	11,433
960	7,233
960,5	17,033
960,9	-10,367
961,3	1,233
961,7	-10,567
962,1	-15,167
962,6	13,833
963	11,233
963,4	-16,567
963,8	22,233
964,2	32,833
964,7	13,033
965,1	44,033
965,5	5,433
965,9	-4,967
966,3	9,233
966,8	16,433
967,2	33,433
967,6	4,633
968	-18,567
968,4	0,833
968,9	13,033
969,3	-16,767
969,7	-41,967
970,1	6,233
970,5	13,433
971	3,633
971,4	10,233
971,8	-4,567
972,2	2,633
972,6	11,433
973,1	-0,567
973,5	-9,567
973,9	10,433
974,3	4,833
974,7	-1,367
975,2	22,833
975,6	3,433
976	17,833
976,4	2,233
976,8	5,033
977,3	9,233
977,7	-7,167
978,1	17,833
978,5	6,833
978,9	-14,767
979,4	33,633
979,8	16,433
980,2	12,033
980,6	-2,767
981	6,833
981,5	-1,367
981,9	14,433
982,3	34,033
982,7	12,433
983,1	7,633
983,6	1,433
984	-2,367
984,4	6,033
984,8	-21,767
985,2	8,033
985,6	14,833
986,1	-12,167
986,5	-20,767
986,9	19,633
987,3	-6,367
987,7	-2,967
988,2	-9,167
988,6	27,833
989	21,433
989,4	15,433
989,8	0,433
990,3	17,633
990,7	-2,967
991,1	32,233
991,5	35,033
991,9	-12,567
992,3	-9,567
992,8	-4,367
993,2	17,233
993,6	-0,367
994	-4,567
994,4	4,233
994,9	-1,167
995,3	16,233
995,7	6,833
996,1	32,633
996,5	11,633
996,9	1,433
997,4	30,633
997,8	8,633
998,2	-2,567
998,6	16,433
999	53,633
999,5	12,633
999,9	26,433
1000,3	13,633
1000,7	4,833
1001,1	-0,767
1001,5	-9,567
1002	14,433
1002,4	13,633
1002,8	2,233
1003,2	-5,167
1003,6	25,033
1004	31,033
1004,5	24,633
1004,9	35,033
1005,3	37,033
1005,7	3,033
1006,1	6,233
1006,6	15,233
1007	20,433
1007,4	6,433
1007,8	1,833
1008,2	11,833
1008,6	-17,567
1009,1	23,433
1009,5	5,233
1009,9	-5,167
1010,3	-7,767
1010,7	-3,167
1011,1	30,633
1011,6	22,033
1012	26,833
1012,4	40,433
1012,8	-16,967
1013,2	-1,567
1013,6	-8,367
1014,1	31,833
1014,5	34,433
1014,9	18,033
1015,3	1,233
1015,7	15,633
1016,1	-12,767
1016,6	-9,967
1017	3,633
1017,4	15,233
1017,8	21,633
1018,2	2,633
1018,6	0,233
1019,1	31,433
1019,5	33,433
1019,9	29,233
1020,3	22,233
1020,7	-0,967
1021,1	-4,567
1021,6	-13,967
1022	11,633
1022,4	28,233
1022,8	-18,167
1023,2	-2,567
1023,6	-1,767
1024,1	-4,767
1024,5	2,633
1024,9	-4,767
1025,3	22,433
1025,7	2,033
1026,1	-4,567
1026,6	-4,167
1027	-11,367
1027,4	9,833
1027,8	-28,367
1028,2	7,833
1028,6	21,433
1029	10,833
1029,5	-12,567
1029,9	39,433
1030,3	20,633
1030,7	18,633
1031,1	-13,767
1031,5	22,033
1032	-9,167
1032,4	9,833
1032,8	-4,167
1033,2	61,633
1033,6	34,233
1034	20,233
1034,4	-4,367
1034,9	1,633
1035,3	20,033
1035,7	-2,367
1036,1	-25,967
1036,5	47,433
1036,9	39,833
1037,4	23,433
1037,8	-5,767
1038,2	-17,567
1038,6	16,633
1039	31,033
1039,4	-2,367
1039,8	-15,167
1040,3	-2,367
1040,7	-7,167
1041,1	31,833
1041,5	17,633
1041,9	17,233
1042,3	-0,167
1042,7	20,433
1043,2	17,433
1043,6	-0,967
1044	0,033
1044,4	6,433
1044,8	-2,567
1045,2	8,633
1045,6	1,633
1046,1	21,833
1046,5	6,433
1046,9	-11,167
1047,3	32,033
1047,7	-17,767
1048,1	-0,367
1048,5	12,833
1049	5,633
1049,4	-12,367
1049,8	-5,167
1050,2	37,433
1050,6	52,033
1051	-16,167
1051,4	12,633
1051,9	35,233
1052,3	17,833
1052,7	5,633
1053,1	3,633
1053,5	19,033
1053,9	1,633
1054,3	5,833
1054,8	-21,567
1055,2	8,633
1055,6	-8,367
1056	21,033
1056,4	-17,167
1056,8	23,833
1057,2	-13,767
1057,6	-18,167
1058,1	24,233
1058,5	-18,567
1058,9	-9,567
1059,3	-2,567
1059,7	11,433
1060,1	12,033
1060,5	-13,967
1061	-4,367
1061,4	6,233
1061,8	3,633
1062,2	5,233
1062,6	5,433
1063	-9,767
1063,4	20,633
1063,8	30,233
1064,3	-5,367
1064,7	-3,167
1065,1	24,433
1065,5	7,033
1065,9	42,833
1066,3	-8,767
1066,7	-4,367
1067,1	12,033
1067,6	30,033
1068	2,433
1068,4	0,033
1068,8	-4,167
1069,2	62,233
1069,6	-3,567
1070	3,433
1070,4	-26,767
1070,9	15,633
1071,3	12,433
1071,7	16,833
1072,1	4,233
1072,5	1,233
1072,9	14,033
1073,3	26,833
1073,7	50,633
1074,2	9,433
1074,6	14,433
1075	5,233
1075,4	30,633
1075,8	-9,767
1076,2	-39,167
1076,6	8,633
1077	10,233
1077,5	-12,767
1077,9	-9,367
1078,3	0,833
1078,7	17,633
1079,1	13,633
1079,5	21,033
1079,9	47,833
1080,3	12,033
1080,7	20,433
1081,2	26,233
1081,6	5,433
1082	16,633
1082,4	16,833
1082,8	-24,767
1083,2	-16,167
1083,6	-4,167
1084	1,633
1084,5	-15,167
1084,9	37,633
1085,3	24,233
1085,7	1,033
1086,1	28,833
1086,5	20,233
1086,9	7,233
1087,3	-31,567
1087,7	5,433
1088,2	14,433
1088,6	-5,167
1089	-30,767
1089,4	-9,367
1089,8	-6,767
1090,2	2,233
1090,6	0,233
1091	5,833
1091,4	4,033
1091,9	12,033
1092,3	-18,967
1092,7	18,433
1093,1	7,433
1093,5	-37,367
1093,9	18,433
1094,3	40,833
1094,7	26,233
1095,1	-11,967
1095,5	15,033
1096	11,033
1096,4	31,433
1096,8	2,233
1097,2	23,833
1097,6	2,633
1098	-2,567
1098,4	3,833
1098,8	-7,367
1099,2	30,833
1099,6	-7,167
1100,1	7,633
1100,5	-7,967
1100,9	2,433
1101,3	26,033
1101,7	3,033
1102,1	13,233
1102,5	-6,367
1102,9	24,033
1103,3	22,833
1103,7	14,433
1104,2	5,033
1104,6	23,033
1105	-3,167
1105,4	-9,367
1105,8	1,233
1106,2	-15,367
1106,6	0,633
1107	-0,767
1107,4	1,033
1107,8	1,033
1108,3	0,033
