Data from Subt2_00021.txt Node
Date: Wed Aug 02 19:17:50 MSK 2023
User: vat
Spectrometer: MAYP114033
Trigger mode: 0
Integration Time (sec): 7,000000E-1
Scans to average: 5
Electric dark correction enabled: true
Nonlinearity correction enabled: false
Boxcar width: 0
XAxis mode: Wavelengths
Number of Pixels in Spectrum: 2068
>>>>>Begin Spectral Data<<<<<
199,4	-2,333
199,9	-4,133
200,4	-0,333
200,8	-2,533
201,3	-6,733
201,8	10,867
202,2	-26,533
202,7	10,067
203,2	10,667
203,6	3,267
204,1	17,867
204,6	8,667
205	-5,933
205,5	3,067
206	19,667
206,4	-5,533
206,9	7,267
207,4	-8,333
207,8	6,867
208,3	27,267
208,8	-3,133
209,2	17,867
209,7	-5,533
210,2	0,667
210,6	-14,933
211,1	-4,333
211,5	-4,333
212	10,267
212,5	1,467
212,9	3,667
213,4	-13,533
213,9	-7,333
214,3	3,667
214,8	16,667
215,3	26,867
215,7	-11,333
216,2	-8,533
216,7	15,667
217,1	20,667
217,6	-15,733
218,1	38,067
218,5	5,067
219	19,867
219,5	46,867
219,9	7,467
220,4	1,067
220,9	-21,133
221,3	22,267
221,8	-12,333
222,3	3,467
222,7	-1,933
223,2	10,267
223,6	7,867
224,1	-3,133
224,6	31,467
225	12,867
225,5	-19,933
226	32,467
226,4	8,667
226,9	6,267
227,4	0,867
227,8	21,467
228,3	-9,733
228,8	-1,333
229,2	10,067
229,7	18,067
230,2	-10,933
230,6	-14,333
231,1	-4,333
231,5	17,467
232	-1,333
232,5	-2,333
232,9	-13,333
233,4	7,267
233,9	-4,733
234,3	-10,733
234,8	23,267
235,3	-4,933
235,7	14,667
236,2	7,467
236,7	25,467
237,1	18,867
237,6	-27,533
238,1	-8,333
238,5	0,867
239	29,267
239,4	-1,533
239,9	-22,133
240,4	22,667
240,8	-15,133
241,3	18,867
241,8	24,667
242,2	-2,533
242,7	12,867
243,2	19,267
243,6	29,867
244,1	4,067
244,6	15,867
245	18,867
245,5	-20,133
245,9	3,067
246,4	6,667
246,9	54,867
247,3	-23,333
247,8	5,067
248,3	-3,133
248,7	45,267
249,2	21,467
249,7	-3,933
250,1	35,467
250,6	10,467
251	1,867
251,5	-1,933
252	13,267
252,4	10,267
252,9	19,267
253,4	5,667
253,8	15,867
254,3	-12,933
254,8	0,467
255,2	32,467
255,7	-0,133
256,1	17,667
256,6	2,467
257,1	-33,733
257,5	18,067
258	-1,133
258,5	-6,133
258,9	-12,733
259,4	6,467
259,9	-19,733
260,3	-16,533
260,8	-0,933
261,2	13,267
261,7	-17,533
262,2	2,667
262,6	-5,533
263,1	24,467
263,6	13,067
264	-29,333
264,5	-11,533
264,9	12,667
265,4	7,267
265,9	14,267
266,3	17,067
266,8	10,867
267,3	7,667
267,7	16,067
268,2	3,267
268,7	25,667
269,1	28,067
269,6	1,067
270	-14,133
270,5	17,267
271	17,467
271,4	-12,933
271,9	-22,933
272,4	14,467
272,8	5,067
273,3	26,467
273,7	-6,533
274,2	-12,133
274,7	1,667
275,1	6,267
275,6	36,867
276,1	2,267
276,5	-2,133
277	10,467
277,4	22,667
277,9	-17,533
278,4	38,667
278,8	11,267
279,3	-23,133
279,8	1,667
280,2	9,667
280,7	0,867
281,1	-5,133
281,6	-5,533
282,1	-0,333
282,5	17,067
283	36,267
283,4	14,467
283,9	23,667
284,4	6,067
284,8	2,667
285,3	-4,133
285,8	43,267
286,2	5,867
286,7	4,267
287,1	13,867
287,6	-25,133
288,1	-1,733
288,5	20,867
289	4,867
289,5	39,067
289,9	19,867
290,4	4,067
290,8	-3,533
291,3	-25,933
291,8	-9,933
292,2	24,667
292,7	8,267
293,1	-4,533
293,6	13,467
294,1	17,867
294,5	-22,533
295	13,667
295,5	-20,533
295,9	-0,133
296,4	-5,133
296,8	-5,133
297,3	-9,733
297,8	7,867
298,2	17,267
298,7	5,467
299,1	-8,733
299,6	-7,533
300,1	33,267
300,5	5,667
301	-7,333
301,5	-13,333
301,9	31,867
302,4	14,067
302,8	11,667
303,3	26,067
303,8	-35,333
304,2	6,867
304,7	18,867
305,1	-18,533
305,6	6,867
306,1	-8,133
306,5	6,867
307	8,267
307,4	2,467
307,9	3,267
308,4	4,067
308,8	-12,133
309,3	12,267
309,8	-12,133
310,2	-2,333
310,7	40,867
311,1	1,467
311,6	7,867
312,1	-8,333
312,5	-2,333
313	3,467
313,4	3,067
313,9	12,267
314,4	-4,733
314,8	3,267
315,3	11,467
315,7	-8,733
316,2	-32,133
316,7	9,267
317,1	-5,733
317,6	22,467
318	-5,533
318,5	11,067
319	21,667
319,4	-1,533
319,9	-13,333
320,3	33,067
320,8	-8,333
321,3	-28,733
321,7	4,267
322,2	0,667
322,6	7,867
323,1	43,467
323,6	10,067
324	1,867
324,5	21,867
324,9	6,067
325,4	-0,533
325,9	17,067
326,3	32,467
326,8	1,667
327,2	22,467
327,7	15,067
328,2	-15,533
328,6	16,267
329,1	16,667
329,5	5,667
330	-5,933
330,5	1,267
330,9	18,067
331,4	-19,133
331,8	0,267
332,3	2,267
332,8	-7,533
333,2	42,867
333,7	-23,133
334,1	0,467
334,6	18,867
335,1	-4,733
335,5	-6,933
336	4,267
336,4	-4,733
336,9	20,867
337,4	-13,933
337,8	-25,733
338,3	20,467
338,7	11,067
339,2	21,067
339,7	-1,933
340,1	3,267
340,6	8,667
341	43,667
341,5	15,067
342	-14,733
342,4	7,867
342,9	-2,333
343,3	4,467
343,8	3,867
344,2	-0,933
344,7	-20,533
345,2	43,067
345,6	17,467
346,1	0,067
346,5	11,667
347	20,667
347,5	-37,333
347,9	10,667
348,4	15,467
348,8	47,467
349,3	13,467
349,8	12,667
350,2	-3,733
350,7	37,867
351,1	28,867
351,6	-14,933
352	8,667
352,5	10,067
353	4,267
353,4	32,867
353,9	37,067
354,3	6,467
354,8	23,267
355,3	73,867
355,7	35,867
356,2	60,267
356,6	40,267
357,1	41,667
357,5	91,267
358	99,667
358,5	96,667
358,9	99,667
359,4	131,267
359,8	149,267
360,3	188,867
360,8	163,667
361,2	213,867
361,7	226,467
362,1	261,667
362,6	300,667
363	347,067
363,5	382,067
364	430,467
364,4	480,467
364,9	501,867
365,3	540,467
365,8	578,667
366,3	670,267
366,7	628,467
367,2	722,067
367,6	753,867
368,1	776,867
368,5	797,267
369	807,467
369,5	781,467
369,9	783,667
370,4	756,867
370,8	756,267
371,3	721,867
371,7	702,667
372,2	693,267
372,7	635,867
373,1	592,067
373,6	598,067
374	564,867
374,5	494,267
374,9	464,867
375,4	425,667
375,9	428,667
376,3	374,067
376,8	337,067
377,2	334,667
377,7	316,067
378,2	275,267
378,6	256,867
379,1	199,467
379,5	213,667
380	194,867
380,4	176,467
380,9	152,067
381,4	166,067
381,8	138,867
382,3	114,267
382,7	99,467
383,2	116,867
383,6	99,867
384,1	84,267
384,6	99,467
385	105,667
385,5	77,667
385,9	114,867
386,4	83,067
386,8	73,267
387,3	34,067
387,7	63,667
388,2	40,667
388,7	66,267
389,1	29,467
389,6	44,267
390	30,467
390,5	59,067
390,9	38,467
391,4	21,267
391,9	27,867
392,3	47,867
392,8	71,867
393,2	35,267
393,7	44,067
394,1	13,067
394,6	23,067
395,1	35,467
395,5	13,867
396	25,867
396,4	26,667
396,9	24,467
397,3	22,467
397,8	13,867
398,2	22,467
398,7	26,267
399,2	5,067
399,6	44,067
400,1	20,067
400,5	24,267
401	7,267
401,4	29,867
401,9	50,467
402,4	43,667
402,8	18,267
403,3	38,067
403,7	10,667
404,2	23,267
404,6	55,667
405,1	4,867
405,5	0,067
406	25,467
406,5	13,467
406,9	47,867
407,4	8,067
407,8	22,067
408,3	27,467
408,7	43,067
409,2	29,667
409,6	33,467
410,1	36,267
410,6	49,867
411	45,867
411,5	30,467
411,9	64,867
412,4	40,267
412,8	52,867
413,3	55,867
413,7	57,667
414,2	80,467
414,7	65,867
415,1	68,467
415,6	78,667
416	112,467
416,5	89,467
416,9	79,467
417,4	104,067
417,8	137,067
418,3	138,667
418,8	127,467
419,2	106,067
419,7	144,067
420,1	130,667
420,6	127,267
421	185,867
421,5	166,267
421,9	181,267
422,4	155,067
422,8	143,467
423,3	193,267
423,8	219,467
424,2	216,467
424,7	222,467
425,1	237,667
425,6	236,467
426	215,667
426,5	270,267
426,9	263,667
427,4	272,467
427,9	294,067
428,3	300,067
428,8	301,467
429,2	341,467
429,7	356,867
430,1	379,467
430,6	397,667
431	388,867
431,5	438,867
431,9	439,067
432,4	464,267
432,8	508,867
433,3	499,467
433,8	520,267
434,2	559,867
434,7	536,667
435,1	564,467
435,6	625,067
436	614,267
436,5	674,867
436,9	697,067
437,4	762,267
437,8	769,667
438,3	815,467
438,8	855,667
439,2	869,267
439,7	934,867
440,1	938,867
440,6	987,467
441	1039,067
441,5	1097,067
441,9	1170,267
442,4	1158,867
442,8	1225,467
443,3	1254,467
443,7	1305,867
444,2	1318,067
444,7	1405,467
445,1	1472,067
445,6	1533,067
446	1532,067
446,5	1646,067
446,9	1682,667
447,4	1744,867
447,8	1774,867
448,3	1838,067
448,7	1920,067
449,2	1984,667
449,6	2037,067
450,1	2157,267
450,6	2190,267
451	2286,467
451,5	2315,867
451,9	2391,867
452,4	2412,067
452,8	2524,467
453,3	2590,067
453,7	2680,467
454,2	2731,267
454,6	2843,467
455,1	2864,667
455,5	2991,867
456	3065,067
456,4	3115,467
456,9	3199,867
457,3	3263,867
457,8	3334,467
458,3	3409,867
458,7	3513,067
459,2	3628,667
459,6	3674,867
460,1	3731,267
460,5	3805,267
461	3920,867
461,4	3961,867
461,9	4062,667
462,3	4137,267
462,8	4170,067
463,2	4258,867
463,7	4375,667
464,1	4442,867
464,6	4472,667
465	4531,467
465,5	4615,667
466	4694,267
466,4	4763,267
466,9	4836,467
467,3	4954,267
467,8	4981,467
468,2	5056,667
468,7	5147,267
469,1	5201,067
469,6	5262,067
470	5272,267
470,5	5349,867
470,9	5432,667
471,4	5517,467
471,8	5511,667
472,3	5610,267
472,7	5664,267
473,2	5720,467
473,6	5744,467
474,1	5819,467
474,5	5885,667
475	5891,667
475,4	5976,667
475,9	6003,267
476,4	6068,067
476,8	6112,467
477,3	6183,667
477,7	6156,267
478,2	6212,667
478,6	6238,467
479,1	6296,467
479,5	6334,867
480	6406,067
480,4	6401,667
480,9	6363,467
481,3	6431,667
481,8	6446,467
482,2	6499,067
482,7	6516,667
483,1	6517,867
483,6	6471,667
484	6531,667
484,5	6575,467
484,9	6573,467
485,4	6585,467
485,8	6544,067
486,3	6488,067
486,7	6578,467
487,2	6553,467
487,6	6528,467
488,1	6601,267
488,5	6582,667
489	6544,467
489,4	6536,867
489,9	6623,667
490,4	6507,867
490,8	6556,267
491,3	6531,667
491,7	6497,067
492,2	6470,467
492,6	6435,267
493,1	6422,467
493,5	6470,267
494	6418,667
494,4	6370,467
494,9	6271,467
495,3	6322,667
495,8	6284,067
496,2	6277,067
496,7	6194,667
497,1	6222,067
497,6	6189,667
498	6139,067
498,5	6076,267
498,9	6080,667
499,4	6031,467
499,8	5989,067
500,3	5998,667
500,7	5960,667
501,2	5939,467
501,6	5905,667
502,1	5910,067
502,5	5872,867
503	5784,267
503,4	5710,267
503,9	5674,267
504,3	5710,267
504,8	5582,667
505,2	5596,667
505,7	5582,867
506,1	5494,467
506,6	5457,867
507	5414,867
507,5	5376,867
507,9	5351,667
508,4	5272,867
508,8	5244,267
509,3	5198,267
509,7	5162,067
510,2	5147,467
510,6	5043,667
511,1	5055,267
511,5	5040,267
512	4964,667
512,4	4904,267
512,9	4875,267
513,3	4803,667
513,8	4764,067
514,2	4704,667
514,7	4720,467
515,1	4612,067
515,6	4603,467
516	4566,067
516,5	4484,867
516,9	4444,867
517,4	4379,667
517,8	4377,667
518,3	4306,067
518,7	4295,067
519,2	4220,467
519,6	4169,067
520,1	4158,067
520,5	4111,267
521	4009,267
521,4	3965,867
521,9	3873,467
522,3	3916,867
522,8	3851,067
523,2	3815,867
523,7	3768,467
524,1	3723,067
524,6	3703,267
525	3660,067
525,5	3577,467
525,9	3537,267
526,4	3515,667
526,8	3496,067
527,3	3444,667
527,7	3380,867
528,2	3386,467
528,6	3349,067
529,1	3299,867
529,5	3237,467
530	3182,467
530,4	3127,267
530,9	3127,067
531,3	3111,867
531,8	3064,067
532,2	3009,867
532,6	2949,867
533,1	2956,667
533,5	2862,667
534	2854,267
534,4	2801,467
534,9	2786,467
535,3	2739,467
535,8	2716,467
536,2	2687,267
536,7	2657,267
537,1	2580,667
537,6	2634,667
538	2559,267
538,5	2531,867
538,9	2503,867
539,4	2452,867
539,8	2448,267
540,3	2380,467
540,7	2390,667
541,2	2332,067
541,6	2284,867
542,1	2292,267
542,5	2238,067
543	2225,667
543,4	2214,067
543,9	2173,467
544,3	2162,067
544,8	2152,067
545,2	2131,067
545,7	2081,867
546,1	2010,467
546,5	2017,467
547	1946,867
547,4	1984,467
547,9	1963,667
548,3	1894,867
548,8	1875,667
549,2	1898,067
549,7	1854,667
550,1	1824,867
550,6	1814,867
551	1805,667
551,5	1780,667
551,9	1739,867
552,4	1706,467
552,8	1671,667
553,3	1670,067
553,7	1657,267
554,2	1645,067
554,6	1604,467
555,1	1596,667
555,5	1603,467
555,9	1615,667
556,4	1527,067
556,8	1536,867
557,3	1510,067
557,7	1476,267
558,2	1482,267
558,6	1493,067
559,1	1436,467
559,5	1454,667
560	1427,467
560,4	1389,067
560,9	1407,667
561,3	1336,667
561,8	1343,067
562,2	1333,267
562,7	1313,267
563,1	1294,067
563,6	1288,667
564	1233,667
564,4	1262,867
564,9	1238,067
565,3	1246,667
565,8	1213,467
566,2	1188,467
566,7	1175,267
567,1	1170,867
567,6	1157,467
568	1157,867
568,5	1136,067
568,9	1097,467
569,4	1103,467
569,8	1106,067
570,3	1075,467
570,7	1059,867
571,1	1076,467
571,6	1030,667
572	1034,867
572,5	1026,067
572,9	1011,667
573,4	1015,067
573,8	968,067
574,3	983,067
574,7	967,667
575,2	955,067
575,6	935,067
576,1	912,667
576,5	908,267
576,9	926,467
577,4	904,867
577,8	874,867
578,3	862,267
578,7	869,267
579,2	872,667
579,6	859,267
580,1	856,467
580,5	849,267
581	826,067
581,4	819,267
581,9	819,067
582,3	782,867
582,7	790,667
583,2	764,867
583,6	785,267
584,1	745,667
584,5	743,467
585	749,867
585,4	735,467
585,9	723,067
586,3	713,867
586,8	701,467
587,2	726,267
587,6	707,267
588,1	700,867
588,5	653,667
589	660,467
589,4	661,667
589,9	671,467
590,3	612,867
590,8	656,467
591,2	634,067
591,7	617,267
592,1	647,867
592,5	621,267
593	616,867
593,4	638,667
593,9	614,267
594,3	589,067
594,8	602,067
595,2	577,667
595,7	603,667
596,1	614,067
596,6	552,667
597	554,867
597,4	566,067
597,9	571,667
598,3	547,267
598,8	534,467
599,2	544,267
599,7	543,667
600,1	521,667
600,6	511,467
601	527,467
601,4	546,867
601,9	537,667
602,3	515,867
602,8	502,467
603,2	473,267
603,7	502,067
604,1	485,267
604,6	508,867
605	483,467
605,4	475,867
605,9	478,067
606,3	484,867
606,8	476,467
607,2	474,267
607,7	463,667
608,1	471,267
608,6	463,267
609	464,467
609,4	451,067
609,9	455,667
610,3	425,267
610,8	455,867
611,2	416,467
611,7	411,267
612,1	423,467
612,6	445,667
613	400,467
613,4	431,667
613,9	405,467
614,3	419,067
614,8	397,467
615,2	401,667
615,7	411,067
616,1	406,467
616,6	401,067
617	405,667
617,4	415,467
617,9	406,267
618,3	389,267
618,8	392,667
619,2	378,467
619,7	367,067
620,1	357,467
620,5	370,667
621	328,867
621,4	347,467
621,9	383,667
622,3	343,267
622,8	347,267
623,2	376,667
623,6	345,867
624,1	335,067
624,5	366,667
625	352,267
625,4	332,267
625,9	333,867
626,3	276,267
626,8	329,467
627,2	285,067
627,6	327,667
628,1	313,267
628,5	319,867
629	341,667
629,4	320,867
629,9	316,467
630,3	288,667
630,7	313,067
631,2	289,067
631,6	325,467
632,1	299,267
632,5	278,067
633	297,067
633,4	306,467
633,8	295,867
634,3	272,467
634,7	302,667
635,2	315,867
635,6	272,467
636,1	261,467
636,5	263,267
636,9	293,867
637,4	274,467
637,8	304,867
638,3	263,467
638,7	282,467
639,2	270,267
639,6	255,467
640	258,267
640,5	281,467
640,9	282,267
641,4	258,667
641,8	277,867
642,2	239,667
642,7	245,867
643,1	261,267
643,6	219,867
644	245,267
644,5	232,467
644,9	258,467
645,3	268,067
645,8	247,867
646,2	222,067
646,7	245,067
647,1	230,867
647,6	227,067
648	265,267
648,4	228,067
648,9	224,267
649,3	247,467
649,8	231,667
650,2	233,867
650,6	233,267
651,1	209,467
651,5	247,867
652	205,867
652,4	237,067
652,9	235,067
653,3	206,267
653,7	242,067
654,2	226,067
654,6	222,667
655,1	232,667
655,5	232,867
655,9	154,467
656,4	243,867
656,8	212,467
657,3	227,067
657,7	199,067
658,2	224,867
658,6	199,667
659	169,867
659,5	165,667
659,9	186,467
660,4	203,867
660,8	203,067
661,2	222,267
661,7	184,267
662,1	247,867
662,6	195,267
663	177,467
663,4	195,867
663,9	217,267
664,3	186,067
664,8	200,467
665,2	199,867
665,6	186,467
666,1	170,867
666,5	160,867
667	212,867
667,4	202,267
667,9	193,667
668,3	173,467
668,7	220,667
669,2	208,667
669,6	180,667
670,1	163,267
670,5	186,467
670,9	169,667
671,4	209,267
671,8	173,867
672,3	176,267
672,7	160,467
673,1	208,267
673,6	167,667
674	181,267
674,5	162,067
674,9	200,067
675,3	165,467
675,8	144,667
676,2	202,267
676,7	157,667
677,1	181,667
677,5	197,867
678	163,067
678,4	169,867
678,9	168,067
679,3	158,267
679,7	172,067
680,2	160,067
680,6	146,267
681,1	170,067
681,5	189,067
681,9	171,267
682,4	132,267
682,8	157,067
683,3	144,267
683,7	181,467
684,1	165,067
684,6	147,667
685	151,067
685,5	147,467
685,9	147,467
686,3	135,667
686,8	129,867
687,2	139,467
687,7	135,467
688,1	105,667
688,5	164,667
689	157,067
689,4	119,467
689,9	130,467
690,3	155,867
690,7	151,267
691,2	131,267
691,6	123,467
692	144,267
692,5	160,867
692,9	155,067
693,4	148,867
693,8	153,467
694,2	124,267
694,7	163,067
695,1	132,467
695,6	138,267
696	159,867
696,4	99,667
696,9	119,467
697,3	124,867
697,8	136,067
698,2	140,667
698,6	109,667
699,1	137,067
699,5	90,267
699,9	133,667
700,4	128,067
700,8	134,067
701,3	138,467
701,7	122,267
702,1	131,667
702,6	95,267
703	142,467
703,5	150,067
703,9	152,267
704,3	84,067
704,8	111,467
705,2	132,267
705,6	130,867
706,1	111,267
706,5	130,467
707	117,467
707,4	115,467
707,8	125,867
708,3	107,667
708,7	126,467
709,2	100,867
709,6	135,467
710	99,067
710,5	81,667
710,9	131,667
711,3	115,267
711,8	97,067
712,2	110,267
712,7	81,467
713,1	137,067
713,5	119,067
714	112,867
714,4	97,067
714,8	105,467
715,3	113,867
715,7	103,867
716,2	99,467
716,6	95,267
717	100,467
717,5	129,867
717,9	135,067
718,3	108,467
718,8	107,067
719,2	135,667
719,7	72,267
720,1	134,867
720,5	75,067
721	90,867
721,4	116,267
721,8	104,867
722,3	70,267
722,7	100,467
723,2	106,067
723,6	100,267
724	80,667
724,5	107,667
724,9	74,467
725,3	103,467
725,8	98,667
726,2	125,267
726,7	94,267
727,1	81,467
727,5	120,867
728	68,267
728,4	93,467
728,8	78,867
729,3	92,667
729,7	98,267
730,1	95,267
730,6	92,867
731	80,467
731,5	49,467
731,9	83,867
732,3	76,867
732,8	73,667
733,2	77,867
733,6	81,067
734,1	84,867
734,5	69,067
734,9	90,667
735,4	99,667
735,8	81,467
736,3	97,667
736,7	99,267
737,1	67,067
737,6	86,067
738	76,467
738,4	64,267
738,9	58,267
739,3	93,067
739,7	65,467
740,2	92,867
740,6	72,067
741,1	98,867
741,5	58,067
741,9	72,267
742,4	85,267
742,8	87,867
743,2	122,467
743,7	64,667
744,1	61,867
744,5	58,867
745	51,467
745,4	100,467
745,8	61,267
746,3	76,267
746,7	82,067
747,2	81,067
747,6	51,667
748	63,667
748,5	91,267
748,9	83,067
749,3	62,867
749,8	89,867
750,2	78,467
750,6	100,267
751,1	53,067
751,5	80,467
751,9	85,867
752,4	87,867
752,8	69,267
753,3	66,667
753,7	62,667
754,1	64,667
754,6	82,267
755	99,267
755,4	67,867
755,9	91,867
756,3	59,467
756,7	55,267
757,2	73,467
757,6	58,067
758	56,267
758,5	37,267
758,9	64,067
759,3	83,867
759,8	105,667
760,2	82,467
760,6	59,467
761,1	66,867
761,5	33,067
761,9	106,267
762,4	81,067
762,8	37,067
763,3	87,667
763,7	72,867
764,1	71,267
764,6	36,667
765	69,267
765,4	79,667
765,9	57,467
766,3	88,867
766,7	48,467
767,2	78,867
767,6	92,267
768	32,467
768,5	67,467
768,9	40,667
769,3	51,267
769,8	56,067
770,2	65,267
770,6	64,267
771,1	32,267
771,5	94,267
771,9	40,467
772,4	54,267
772,8	73,867
773,2	65,667
773,7	47,067
774,1	37,467
774,5	79,267
775	63,667
775,4	77,267
775,8	56,267
776,3	63,467
776,7	62,067
777,1	36,267
777,6	63,867
778	71,467
778,4	60,667
778,9	53,467
779,3	9,867
779,7	46,067
780,2	67,467
780,6	43,067
781	58,867
781,5	57,667
781,9	51,667
782,3	74,467
782,8	74,667
783,2	31,867
783,6	41,667
784,1	83,267
784,5	13,067
784,9	58,867
785,4	40,867
785,8	40,267
786,2	66,267
786,7	37,067
787,1	76,067
787,5	50,067
788	55,667
788,4	12,467
788,8	50,867
789,3	39,667
789,7	33,467
790,1	72,267
790,6	51,467
791	47,467
791,4	53,467
791,9	63,867
792,3	73,467
792,7	60,467
793,2	76,667
793,6	28,067
794	65,467
794,5	37,067
794,9	41,467
795,3	74,267
795,8	40,867
796,2	43,467
796,6	30,467
797,1	26,467
797,5	74,067
797,9	45,867
798,4	20,267
798,8	45,667
799,2	55,267
799,7	27,867
800,1	71,067
800,5	55,467
801	45,667
801,4	42,667
801,8	55,267
802,2	77,467
802,7	29,867
803,1	59,067
803,5	40,867
804	77,867
804,4	27,667
804,8	34,267
805,3	-5,733
805,7	8,067
806,1	41,667
806,6	65,667
807	43,667
807,4	41,867
807,9	69,067
808,3	40,067
808,7	50,467
809,2	25,467
809,6	37,467
810	52,867
810,4	18,867
810,9	27,667
811,3	83,267
811,7	47,667
812,2	18,467
812,6	28,067
813	69,667
813,5	48,067
813,9	29,467
814,3	21,867
814,8	44,667
815,2	54,067
815,6	26,267
816,1	32,467
816,5	59,467
816,9	16,667
817,3	-17,733
817,8	38,067
818,2	13,067
818,6	35,867
819,1	29,267
819,5	26,867
819,9	18,667
820,4	17,267
820,8	29,067
821,2	26,467
821,7	29,067
822,1	39,467
822,5	37,667
822,9	45,067
823,4	53,067
823,8	38,867
824,2	49,267
824,7	36,267
825,1	60,467
825,5	-10,133
826	41,067
826,4	31,267
826,8	23,667
827,3	29,467
827,7	18,067
828,1	8,667
828,5	15,067
829	33,267
829,4	22,067
829,8	23,867
830,3	-15,533
830,7	18,667
831,1	42,667
831,6	70,667
832	54,867
832,4	49,267
832,8	27,867
833,3	-15,133
833,7	28,867
834,1	31,467
834,6	34,467
835	24,467
835,4	24,667
835,8	47,867
836,3	52,467
836,7	41,467
837,1	31,467
837,6	17,467
838	49,067
838,4	32,267
838,9	12,267
839,3	31,067
839,7	22,667
840,1	12,867
840,6	67,667
841	11,667
841,4	31,667
841,9	17,667
842,3	21,267
842,7	17,267
843,1	23,467
843,6	19,667
844	36,467
844,4	26,667
844,9	27,667
845,3	58,067
845,7	22,267
846,2	14,067
846,6	37,867
847	38,667
847,4	35,067
847,9	40,067
848,3	25,267
848,7	33,267
849,2	20,667
849,6	22,267
850	25,267
850,4	59,467
850,9	23,667
851,3	23,467
851,7	29,067
852,2	14,867
852,6	7,467
853	15,467
853,4	37,667
853,9	14,667
854,3	19,467
854,7	9,067
855,2	16,267
855,6	-0,133
856	37,267
856,4	23,467
856,9	34,267
857,3	11,667
857,7	26,467
858,2	22,067
858,6	41,667
859	31,467
859,4	2,267
859,9	3,667
860,3	21,067
860,7	29,867
861,1	31,867
861,6	25,667
862	34,667
862,4	31,467
862,9	18,467
863,3	1,667
863,7	20,867
864,1	22,867
864,6	14,867
865	36,867
865,4	16,867
865,9	31,667
866,3	28,667
866,7	55,467
867,1	26,267
867,6	5,667
868	11,267
868,4	13,667
868,8	7,867
869,3	52,467
869,7	14,267
870,1	22,467
870,6	28,867
871	30,067
871,4	18,067
871,8	-1,733
872,3	191,467
872,7	2,667
873,1	21,267
873,5	12,667
874	23,667
874,4	11,267
874,8	27,867
875,3	-3,533
875,7	1,867
876,1	27,067
876,5	37,667
877	-4,133
877,4	35,867
877,8	39,267
878,2	14,467
878,7	41,067
879,1	38,867
879,5	52,867
879,9	20,667
880,4	30,067
880,8	14,667
881,2	23,267
881,7	2,667
882,1	7,867
882,5	18,467
882,9	8,667
883,4	7,667
883,8	25,067
884,2	19,667
884,6	-14,733
885,1	8,267
885,5	12,267
885,9	12,667
886,3	4,467
886,8	29,267
887,2	10,067
887,6	33,267
888	-2,733
888,5	19,267
888,9	37,667
889,3	21,667
889,8	29,467
890,2	22,067
890,6	10,867
891	31,667
891,5	5,467
891,9	-5,333
892,3	20,467
892,7	17,667
893,2	14,267
893,6	25,267
894	2,267
894,4	14,067
894,9	7,067
895,3	-14,733
895,7	38,867
896,1	50,867
896,6	31,467
897	19,067
897,4	24,267
897,8	12,667
898,3	-1,533
898,7	20,467
899,1	8,267
899,5	25,467
900	29,067
900,4	-8,133
900,8	18,267
901,2	-6,333
901,7	16,667
902,1	-16,533
902,5	-22,533
902,9	20,467
903,4	-9,333
903,8	-0,133
904,2	35,067
904,6	4,867
905,1	-6,933
905,5	-0,933
905,9	-4,733
906,3	6,067
906,8	3,867
907,2	10,667
907,6	-8,133
908	-1,333
908,5	10,467
908,9	18,867
909,3	-3,133
909,7	-3,333
910,2	34,867
910,6	26,067
911	24,667
911,4	35,667
911,9	8,467
912,3	-8,933
912,7	30,667
913,1	23,267
913,6	10,667
914	8,467
914,4	25,667
914,8	9,267
915,3	5,867
915,7	10,267
916,1	34,267
916,5	-14,733
916,9	10,467
917,4	-14,733
917,8	25,667
918,2	23,667
918,6	13,467
919,1	1,067
919,5	7,667
919,9	30,067
920,3	1,867
920,8	27,867
921,2	-10,733
921,6	-1,933
922	27,067
922,5	6,467
922,9	9,467
923,3	22,467
923,7	34,867
924,2	37,267
924,6	2,467
925	34,267
925,4	18,267
925,8	-4,333
926,3	-18,533
926,7	3,467
927,1	14,067
927,5	-1,533
928	11,067
928,4	6,067
928,8	-5,133
929,2	11,667
929,7	25,667
930,1	4,867
930,5	-3,933
930,9	25,667
931,3	-3,133
931,8	3,067
932,2	2,467
932,6	-18,533
933	-0,733
933,5	20,267
933,9	-16,733
934,3	11,467
934,7	25,267
935,2	16,267
935,6	10,667
936	-14,333
936,4	15,267
936,8	19,467
937,3	5,667
937,7	-13,133
938,1	17,867
938,5	14,267
939	3,867
939,4	0,267
939,8	25,667
940,2	-5,533
940,6	19,867
941,1	1,667
941,5	-16,133
941,9	-2,933
942,3	17,467
942,8	3,067
943,2	4,867
943,6	-7,133
944	-14,733
944,4	25,867
944,9	12,867
945,3	25,867
945,7	-2,333
946,1	-3,333
946,6	30,467
947	-14,933
947,4	16,867
947,8	-5,933
948,2	5,467
948,7	11,667
949,1	19,267
949,5	6,667
949,9	8,867
950,3	15,667
950,8	3,267
951,2	16,667
951,6	-9,733
952	-6,333
952,5	-8,933
952,9	2,667
953,3	-0,933
953,7	12,667
954,1	21,067
954,6	16,267
955	10,067
955,4	-22,133
955,8	11,667
956,2	47,267
956,7	-10,533
957,1	37,867
957,5	-17,533
957,9	24,467
958,3	12,867
958,8	16,267
959,2	39,067
959,6	5,667
960	2,067
960,5	54,067
960,9	-4,333
961,3	13,267
961,7	0,867
962,1	-13,933
962,6	-1,533
963	8,667
963,4	3,667
963,8	-3,933
964,2	37,267
964,7	8,067
965,1	27,867
965,5	16,667
965,9	49,267
966,3	4,267
966,8	23,867
967,2	0,467
967,6	-3,933
968	-0,733
968,4	-7,333
968,9	37,867
969,3	-7,933
969,7	-12,133
970,1	23,267
970,5	0,867
971	17,267
971,4	6,267
971,8	1,267
972,2	11,267
972,6	10,267
973,1	-13,133
973,5	2,267
973,9	27,467
974,3	14,467
974,7	20,467
975,2	9,667
975,6	10,467
976	2,267
976,4	-4,733
976,8	15,467
977,3	15,067
977,7	-0,333
978,1	6,267
978,5	11,067
978,9	-15,933
979,4	15,267
979,8	15,467
980,2	20,067
980,6	-13,133
981	20,067
981,5	6,067
981,9	-0,333
982,3	52,067
982,7	-0,333
983,1	6,667
983,6	16,867
984	3,667
984,4	11,867
984,8	-15,533
985,2	-9,533
985,6	1,867
986,1	7,267
986,5	-37,333
986,9	31,867
987,3	5,067
987,7	7,467
988,2	2,267
988,6	-11,133
989	26,867
989,4	4,067
989,8	-8,133
990,3	4,867
990,7	-8,333
991,1	26,667
991,5	25,867
991,9	28,867
992,3	3,667
992,8	1,067
993,2	33,467
993,6	-6,733
994	9,467
994,4	-14,133
994,9	-9,533
995,3	18,667
995,7	-8,533
996,1	14,867
996,5	0,667
996,9	23,267
997,4	5,667
997,8	13,467
998,2	12,267
998,6	-9,333
999	24,667
999,5	7,267
999,9	21,067
1000,3	-5,933
1000,7	-2,133
1001,1	-13,733
1001,5	-1,333
1002	26,667
1002,4	-5,533
1002,8	7,867
1003,2	8,267
1003,6	-13,933
1004	50,467
1004,5	53,067
1004,9	18,667
1005,3	24,867
1005,7	20,667
1006,1	-15,333
1006,6	24,867
1007	-13,933
1007,4	26,267
1007,8	-2,733
1008,2	22,867
1008,6	-13,533
1009,1	-9,533
1009,5	23,267
1009,9	-10,733
1010,3	8,267
1010,7	-13,333
1011,1	14,067
1011,6	-9,933
1012	13,867
1012,4	-0,133
1012,8	0,467
1013,2	12,267
1013,6	11,067
1014,1	26,267
1014,5	11,067
1014,9	9,667
1015,3	11,467
1015,7	23,867
1016,1	-12,933
1016,6	12,467
1017	-16,133
1017,4	2,667
1017,8	16,867
1018,2	-6,333
1018,6	19,267
1019,1	-9,933
1019,5	23,267
1019,9	26,467
1020,3	20,867
1020,7	18,267
1021,1	-3,333
1021,6	-13,333
1022	28,067
1022,4	21,067
1022,8	-1,533
1023,2	19,667
1023,6	-1,933
1024,1	-13,733
1024,5	7,867
1024,9	4,467
1025,3	15,467
1025,7	-5,933
1026,1	-0,933
1026,6	16,067
1027	-21,933
1027,4	40,467
1027,8	-3,533
1028,2	0,667
1028,6	14,667
1029	5,667
1029,5	-17,333
1029,9	19,467
1030,3	-14,133
1030,7	21,467
1031,1	4,867
1031,5	-4,133
1032	19,267
1032,4	12,267
1032,8	-16,533
1033,2	57,067
1033,6	15,867
1034	22,867
1034,4	-17,933
1034,9	3,267
1035,3	37,867
1035,7	1,067
1036,1	-8,733
1036,5	28,867
1036,9	15,067
1037,4	5,867
1037,8	-4,733
1038,2	-46,533
1038,6	8,067
1039	4,467
1039,4	11,267
1039,8	-18,533
1040,3	22,267
1040,7	-4,533
1041,1	25,667
1041,5	27,667
1041,9	-7,733
1042,3	-12,133
1042,7	-10,333
1043,2	11,267
1043,6	3,267
1044	1,067
1044,4	42,467
1044,8	1,267
1045,2	7,467
1045,6	16,067
1046,1	12,267
1046,5	-1,533
1046,9	25,267
1047,3	3,067
1047,7	-0,933
1048,1	34,067
1048,5	48,067
1049	-14,733
1049,4	-15,933
1049,8	-7,133
1050,2	21,467
1050,6	11,467
1051	-30,133
1051,4	-7,533
1051,9	34,467
1052,3	32,267
1052,7	12,267
1053,1	25,667
1053,5	29,267
1053,9	6,867
1054,3	-8,333
1054,8	6,467
1055,2	12,067
1055,6	-14,533
1056	21,867
1056,4	8,867
1056,8	29,467
1057,2	12,267
1057,6	-0,333
1058,1	3,467
1058,5	5,667
1058,9	3,867
1059,3	-15,733
1059,7	7,467
1060,1	1,467
1060,5	14,467
1061	12,067
1061,4	23,467
1061,8	3,667
1062,2	-5,133
1062,6	-4,933
1063	-10,133
1063,4	50,467
1063,8	1,267
1064,3	7,867
1064,7	15,267
1065,1	12,467
1065,5	5,867
1065,9	33,467
1066,3	3,067
1066,7	21,067
1067,1	20,867
1067,6	14,667
1068	-22,333
1068,4	2,867
1068,8	-11,133
1069,2	21,467
1069,6	5,467
1070	23,067
1070,4	-44,733
1070,9	12,667
1071,3	2,467
1071,7	11,667
1072,1	-7,333
1072,5	3,467
1072,9	15,267
1073,3	29,067
1073,7	46,067
1074,2	11,267
1074,6	0,067
1075	-29,533
1075,4	1,267
1075,8	-12,933
1076,2	-25,333
1076,6	21,467
1077	1,467
1077,5	17,267
1077,9	16,267
1078,3	6,267
1078,7	16,067
1079,1	-1,133
1079,5	24,267
1079,9	29,667
1080,3	6,067
1080,7	19,467
1081,2	8,267
1081,6	-10,333
1082	40,467
1082,4	9,867
1082,8	-21,333
1083,2	-26,933
1083,6	19,267
1084	2,867
1084,5	1,067
1084,9	22,067
1085,3	4,067
1085,7	6,667
1086,1	-3,333
1086,5	10,867
1086,9	-14,733
1087,3	-34,133
1087,7	11,467
1088,2	-5,333
1088,6	-12,333
1089	4,467
1089,4	-14,333
1089,8	19,867
1090,2	-11,933
1090,6	-10,533
1091	8,467
1091,4	24,267
1091,9	0,867
1092,3	-4,533
1092,7	19,867
1093,1	20,267
1093,5	-21,933
1093,9	-10,733
1094,3	11,867
1094,7	11,867
1095,1	2,067
1095,5	-3,133
1096	-5,133
1096,4	64,867
1096,8	1,067
1097,2	8,067
1097,6	6,467
1098	0,067
1098,4	8,067
1098,8	6,667
1099,2	18,667
1099,6	7,867
1100,1	-10,533
1100,5	11,467
1100,9	-11,533
1101,3	5,867
1101,7	17,867
1102,1	9,467
1102,5	-1,933
1102,9	-0,933
1103,3	19,867
1103,7	6,067
1104,2	0,667
1104,6	4,667
1105	-8,933
1105,4	-2,533
1105,8	-5,533
1106,2	-9,533
1106,6	-13,733
1107	0,267
1107,4	2,067
1107,8	0,067
1108,3	0,467
