Data from Subt2_00020.txt Node
Date: Wed Aug 02 19:16:26 MSK 2023
User: vat
Spectrometer: MAYP114033
Trigger mode: 0
Integration Time (sec): 7,000000E-1
Scans to average: 5
Electric dark correction enabled: true
Nonlinearity correction enabled: false
Boxcar width: 0
XAxis mode: Wavelengths
Number of Pixels in Spectrum: 2068
>>>>>Begin Spectral Data<<<<<
199,4	-2,533
199,9	-2,533
200,4	-2,733
200,8	-0,133
201,3	-10,333
201,8	-11,133
202,2	1,067
202,7	14,067
203,2	3,867
203,6	16,267
204,1	21,267
204,6	14,667
205	6,067
205,5	19,067
206	16,867
206,4	-11,733
206,9	11,467
207,4	4,067
207,8	-3,133
208,3	19,467
208,8	2,667
209,2	11,267
209,7	9,867
210,2	31,467
210,6	-22,333
211,1	1,067
211,5	6,067
212	-2,133
212,5	1,867
212,9	-2,133
213,4	-31,733
213,9	37,267
214,3	-8,133
214,8	56,867
215,3	16,467
215,7	4,467
216,2	-3,533
216,7	14,467
217,1	18,467
217,6	10,067
218,1	28,267
218,5	25,867
219	24,067
219,5	29,667
219,9	-15,733
220,4	24,067
220,9	13,867
221,3	27,667
221,8	-6,733
222,3	-2,333
222,7	-13,133
223,2	32,067
223,6	-5,133
224,1	24,267
224,6	16,067
225	-7,333
225,5	-11,533
226	18,867
226,4	-3,333
226,9	18,667
227,4	1,467
227,8	-12,133
228,3	-14,933
228,8	1,267
229,2	14,267
229,7	9,867
230,2	-25,933
230,6	8,067
231,1	24,467
231,5	25,867
232	-5,333
232,5	-4,933
232,9	-9,733
233,4	10,867
233,9	18,467
234,3	-15,133
234,8	25,467
235,3	36,867
235,7	13,467
236,2	13,067
236,7	24,667
237,1	30,267
237,6	-27,133
238,1	10,867
238,5	5,267
239	32,267
239,4	-42,333
239,9	-28,533
240,4	36,467
240,8	-11,533
241,3	5,467
241,8	4,467
242,2	17,667
242,7	44,467
243,2	14,667
243,6	-3,933
244,1	-44,333
244,6	13,667
245	11,067
245,5	1,867
245,9	-5,933
246,4	28,467
246,9	34,667
247,3	-21,133
247,8	-2,733
248,3	-21,333
248,7	19,667
249,2	26,267
249,7	-12,933
250,1	16,867
250,6	36,467
251	0,067
251,5	10,667
252	12,067
252,4	-26,933
252,9	-21,733
253,4	-4,333
253,8	12,867
254,3	15,467
254,8	-6,133
255,2	23,667
255,7	19,067
256,1	4,467
256,6	2,867
257,1	-12,733
257,5	15,067
258	7,267
258,5	27,467
258,9	13,067
259,4	8,467
259,9	-0,533
260,3	-8,333
260,8	7,867
261,2	27,867
261,7	-2,933
262,2	3,667
262,6	-10,533
263,1	62,867
263,6	-1,533
264	-28,933
264,5	10,867
264,9	9,467
265,4	2,267
265,9	32,467
266,3	24,067
266,8	8,467
267,3	16,867
267,7	-7,733
268,2	20,867
268,7	5,667
269,1	19,067
269,6	5,467
270	29,667
270,5	-2,333
271	17,467
271,4	12,267
271,9	0,267
272,4	11,667
272,8	-14,733
273,3	5,067
273,7	27,067
274,2	-8,333
274,7	4,667
275,1	16,667
275,6	21,067
276,1	-1,533
276,5	3,067
277	28,467
277,4	15,867
277,9	-8,533
278,4	7,667
278,8	15,267
279,3	-8,533
279,8	5,067
280,2	-25,133
280,7	-18,333
281,1	-1,133
281,6	-18,933
282,1	5,867
282,5	0,467
283	5,667
283,4	12,067
283,9	26,267
284,4	-15,733
284,8	17,667
285,3	9,267
285,8	27,067
286,2	3,867
286,7	-8,933
287,1	-2,733
287,6	-6,933
288,1	-3,933
288,5	-8,933
289	8,467
289,5	25,067
289,9	20,867
290,4	-0,733
290,8	33,067
291,3	-16,933
291,8	2,067
292,2	18,067
292,7	18,867
293,1	-9,533
293,6	-12,933
294,1	10,467
294,5	-27,733
295	-13,133
295,5	3,867
295,9	-1,933
296,4	10,267
296,8	1,667
297,3	18,067
297,8	5,067
298,2	9,067
298,7	5,267
299,1	-7,733
299,6	2,267
300,1	10,667
300,5	26,867
301	-8,733
301,5	-31,333
301,9	14,667
302,4	-19,933
302,8	14,067
303,3	25,867
303,8	-5,533
304,2	12,267
304,7	12,867
305,1	-11,133
305,6	-0,533
306,1	-6,733
306,5	3,467
307	-1,533
307,4	-2,333
307,9	-13,333
308,4	27,667
308,8	-15,133
309,3	15,667
309,8	2,067
310,2	10,867
310,7	26,667
311,1	25,067
311,6	9,867
312,1	-7,533
312,5	6,667
313	8,867
313,4	10,267
313,9	39,267
314,4	-6,133
314,8	3,867
315,3	2,667
315,7	8,667
316,2	-6,533
316,7	-8,733
317,1	-16,533
317,6	-3,133
318	7,867
318,5	-5,133
319	27,867
319,4	3,467
319,9	3,067
320,3	28,067
320,8	-2,333
321,3	1,267
321,7	6,067
322,2	-4,333
322,6	24,667
323,1	4,867
323,6	4,267
324	0,467
324,5	-5,133
324,9	-9,733
325,4	8,667
325,9	-7,733
326,3	18,667
326,8	32,267
327,2	26,667
327,7	24,867
328,2	0,467
328,6	9,667
329,1	-24,733
329,5	30,667
330	8,067
330,5	13,867
330,9	32,667
331,4	-22,133
331,8	22,467
332,3	2,867
332,8	-0,133
333,2	35,467
333,7	17,067
334,1	18,467
334,6	10,467
335,1	-5,333
335,5	3,467
336	2,067
336,4	11,267
336,9	17,867
337,4	9,067
337,8	13,867
338,3	28,467
338,7	10,867
339,2	34,667
339,7	12,667
340,1	12,667
340,6	24,067
341	38,667
341,5	29,467
342	-5,533
342,4	-0,933
342,9	5,067
343,3	23,067
343,8	15,667
344,2	6,267
344,7	11,667
345,2	59,867
345,6	5,867
346,1	17,067
346,5	16,867
347	18,467
347,5	23,667
347,9	23,467
348,4	18,467
348,8	36,067
349,3	30,067
349,8	40,067
350,2	26,267
350,7	49,667
351,1	65,467
351,6	44,067
352	61,867
352,5	61,067
353	82,467
353,4	93,867
353,9	156,867
354,3	147,267
354,8	193,667
355,3	291,267
355,7	313,267
356,2	367,467
356,6	447,867
357,1	505,267
357,5	595,067
358	711,067
358,5	803,867
358,9	920,667
359,4	1108,267
359,8	1290,067
360,3	1465,867
360,8	1651,067
361,2	1934,067
361,7	2175,667
362,1	2454,467
362,6	2825,067
363	3180,067
363,5	3530,067
364	3920,467
364,4	4335,467
364,9	4754,667
365,3	5149,067
365,8	5515,267
366,3	5947,867
366,7	6194,267
367,2	6565,667
367,6	6747,467
368,1	6956,667
368,5	7120,667
369	7154,667
369,5	7119,667
369,9	7015,867
370,4	6914,667
370,8	6772,267
371,3	6553,867
371,7	6273,267
372,2	6015,667
372,7	5703,667
373,1	5391,867
373,6	5077,867
374	4745,667
374,5	4389,267
374,9	4057,067
375,4	3798,667
375,9	3514,467
376,3	3225,867
376,8	2977,867
377,2	2739,867
377,7	2537,867
378,2	2296,867
378,6	2075,067
379,1	1895,867
379,5	1747,267
380	1601,867
380,4	1432,267
380,9	1319,467
381,4	1242,667
381,8	1103,467
382,3	1059,467
382,7	939,867
383,2	899,467
383,6	818,267
384,1	738,267
384,6	734,267
385	660,067
385,5	589,867
385,9	575,667
386,4	493,667
386,8	496,867
387,3	427,467
387,7	420,067
388,2	389,867
388,7	345,667
389,1	314,667
389,6	315,467
390	306,467
390,5	267,067
390,9	220,267
391,4	211,867
391,9	192,267
392,3	217,667
392,8	211,267
393,2	184,467
393,7	154,267
394,1	160,867
394,6	139,067
395,1	145,267
395,5	147,067
396	118,867
396,4	133,867
396,9	75,867
397,3	101,267
397,8	92,867
398,2	104,467
398,7	102,467
399,2	80,867
399,6	94,267
400,1	67,067
400,5	77,067
401	77,067
401,4	87,267
401,9	79,067
402,4	82,267
402,8	66,467
403,3	70,467
403,7	57,467
404,2	43,667
404,6	90,067
405,1	32,467
405,5	34,867
406	53,267
406,5	43,467
406,9	59,667
407,4	42,867
407,8	40,667
408,3	47,067
408,7	39,667
409,2	40,467
409,6	35,667
410,1	52,467
410,6	61,467
411	44,267
411,5	-0,533
411,9	66,267
412,4	38,067
412,8	34,667
413,3	38,467
413,7	48,267
414,2	54,667
414,7	31,467
415,1	51,067
415,6	56,467
416	47,067
416,5	48,067
416,9	27,267
417,4	45,867
417,8	61,067
418,3	69,667
418,8	53,267
419,2	60,267
419,7	69,867
420,1	60,467
420,6	44,067
421	68,667
421,5	45,667
421,9	50,667
422,4	46,067
422,8	57,267
423,3	27,667
423,8	58,267
424,2	40,867
424,7	51,267
425,1	52,667
425,6	43,267
426	46,667
426,5	57,267
426,9	45,867
427,4	48,067
427,9	29,067
428,3	41,467
428,8	5,667
429,2	26,667
429,7	44,867
430,1	33,467
430,6	55,867
431	37,267
431,5	38,067
431,9	21,467
432,4	-4,133
432,8	48,267
433,3	19,467
433,8	29,667
434,2	55,467
434,7	-4,933
435,1	-1,533
435,6	30,067
436	-15,533
436,5	21,267
436,9	18,267
437,4	20,667
437,8	13,067
438,3	26,267
438,8	19,667
439,2	-6,133
439,7	16,267
440,1	-1,533
440,6	22,667
441	26,267
441,5	17,267
441,9	9,467
442,4	11,867
442,8	2,067
443,3	42,267
443,7	19,267
444,2	6,067
444,7	32,667
445,1	17,267
445,6	38,267
446	27,467
446,5	7,867
446,9	27,267
447,4	23,667
447,8	-2,933
448,3	-2,933
448,7	-10,933
449,2	32,667
449,6	-3,933
450,1	42,467
450,6	-6,333
451	21,667
451,5	-0,533
451,9	28,267
452,4	-3,333
452,8	29,267
453,3	11,067
453,7	33,467
454,2	57,867
454,6	27,867
455,1	35,067
455,5	40,667
456	9,467
456,4	7,067
456,9	27,867
457,3	-1,133
457,8	-3,933
458,3	18,467
458,7	25,667
459,2	25,267
459,6	13,067
460,1	6,867
460,5	26,067
461	25,867
461,4	12,867
461,9	13,867
462,3	27,467
462,8	8,467
463,2	6,267
463,7	27,267
464,1	13,467
464,6	5,267
465	21,667
465,5	6,667
466	57,067
466,4	2,867
466,9	33,267
467,3	12,267
467,8	10,667
468,2	18,867
468,7	30,467
469,1	29,267
469,6	12,467
470	21,867
470,5	5,467
470,9	20,667
471,4	4,267
471,8	0,267
472,3	10,267
472,7	4,867
473,2	48,667
473,6	15,467
474,1	-1,133
474,5	26,067
475	-18,133
475,4	29,667
475,9	-2,733
476,4	39,467
476,8	24,667
477,3	41,667
477,7	4,667
478,2	41,067
478,6	-7,533
479,1	24,267
479,5	35,267
480	25,667
480,4	18,067
480,9	-9,133
481,3	-2,333
481,8	17,467
482,2	7,267
482,7	-4,533
483,1	12,467
483,6	-14,533
484	4,667
484,5	18,867
484,9	17,867
485,4	21,467
485,8	-1,933
486,3	-0,533
486,7	11,867
487,2	12,067
487,6	-14,333
488,1	24,467
488,5	-5,533
489	-7,533
489,4	-2,133
489,9	55,267
490,4	-12,133
490,8	8,667
491,3	20,667
491,7	-11,933
492,2	24,467
492,6	40,467
493,1	-0,333
493,5	10,467
494	30,867
494,4	6,467
494,9	15,067
495,3	51,867
495,8	26,667
496,2	29,267
496,7	6,067
497,1	44,667
497,6	-2,533
498	-11,533
498,5	8,067
498,9	-7,133
499,4	31,467
499,8	4,067
500,3	-9,933
500,7	-6,933
501,2	3,667
501,6	14,467
502,1	39,667
502,5	40,867
503	6,267
503,4	-9,133
503,9	-5,133
504,3	19,867
504,8	23,867
505,2	21,467
505,7	14,867
506,1	34,867
506,6	-2,333
507	-19,733
507,5	20,067
507,9	0,267
508,4	9,067
508,8	25,067
509,3	-6,533
509,7	18,067
510,2	28,067
510,6	-21,333
511,1	20,067
511,5	36,067
512	12,867
512,4	7,667
512,9	13,267
513,3	-19,333
513,8	14,867
514,2	-13,533
514,7	9,667
515,1	1,267
515,6	0,067
516	24,467
516,5	4,667
516,9	26,867
517,4	5,667
517,8	55,067
518,3	20,867
518,7	18,067
519,2	-16,933
519,6	6,667
520,1	25,467
520,5	7,667
521	1,667
521,4	5,667
521,9	20,067
522,3	9,467
522,8	1,067
523,2	15,267
523,7	9,867
524,1	19,067
524,6	9,067
525	2,867
525,5	-3,133
525,9	-0,933
526,4	4,667
526,8	32,067
527,3	30,867
527,7	16,667
528,2	20,867
528,6	20,267
529,1	13,667
529,5	4,067
530	36,867
530,4	5,067
530,9	0,267
531,3	26,667
531,8	-1,533
532,2	32,067
532,6	-6,533
533,1	2,267
533,5	-27,733
534	-2,533
534,4	1,867
534,9	3,267
535,3	33,667
535,8	16,667
536,2	38,267
536,7	7,867
537,1	-12,933
537,6	20,867
538	20,867
538,5	35,867
538,9	9,067
539,4	2,267
539,8	-13,533
540,3	6,467
540,7	14,467
541,2	-13,533
541,6	-11,733
542,1	12,667
542,5	-7,333
543	19,067
543,4	20,667
543,9	-0,533
544,3	21,867
544,8	14,667
545,2	33,867
545,7	28,467
546,1	8,467
546,5	16,267
547	-22,933
547,4	14,067
547,9	22,667
548,3	-11,533
548,8	-2,333
549,2	48,067
549,7	16,267
550,1	4,067
550,6	18,867
551	10,267
551,5	9,467
551,9	17,067
552,4	14,467
552,8	4,667
553,3	-7,933
553,7	4,267
554,2	11,867
554,6	10,667
555,1	15,667
555,5	28,467
555,9	30,467
556,4	0,667
556,8	13,267
557,3	11,667
557,7	-2,333
558,2	11,867
558,6	34,867
559,1	11,467
559,5	18,867
560	-3,733
560,4	8,867
560,9	31,067
561,3	9,667
561,8	23,267
562,2	12,667
562,7	-21,133
563,1	-7,333
563,6	-13,333
564	25,467
564,4	34,467
564,9	14,467
565,3	28,667
565,8	17,667
566,2	20,667
566,7	9,867
567,1	3,067
567,6	9,067
568	1,867
568,5	4,467
568,9	16,867
569,4	3,667
569,8	13,867
570,3	32,267
570,7	19,667
571,1	38,067
571,6	14,467
572	23,667
572,5	10,467
572,9	19,267
573,4	5,067
573,8	-8,333
574,3	3,867
574,7	5,667
575,2	8,267
575,6	0,667
576,1	-2,333
576,5	3,867
576,9	31,667
577,4	19,067
577,8	-14,733
578,3	4,267
578,7	47,067
579,2	10,667
579,6	2,667
580,1	6,667
580,5	36,067
581	16,867
581,4	22,267
581,9	16,267
582,3	-15,933
582,7	33,867
583,2	-8,133
583,6	39,467
584,1	-4,133
584,5	0,267
585	16,467
585,4	-5,333
585,9	9,867
586,3	5,467
586,8	-9,133
587,2	18,667
587,6	6,667
588,1	13,267
588,5	-21,733
589	7,867
589,4	6,467
589,9	17,867
590,3	-18,133
590,8	-5,933
591,2	10,667
591,7	6,267
592,1	7,867
592,5	10,667
593	5,667
593,4	50,267
593,9	-4,933
594,3	-13,933
594,8	5,067
595,2	-0,133
595,7	3,267
596,1	28,667
596,6	8,267
597	18,267
597,4	17,667
597,9	22,467
598,3	-21,933
598,8	-18,733
599,2	-33,333
599,7	4,667
600,1	-10,933
600,6	6,067
601	14,267
601,4	37,067
601,9	23,467
602,3	2,067
602,8	-4,533
603,2	-13,533
603,7	12,667
604,1	-7,533
604,6	33,067
605	27,667
605,4	8,067
605,9	35,467
606,3	-19,533
606,8	12,467
607,2	23,867
607,7	31,867
608,1	21,067
608,6	6,667
609	21,067
609,4	12,267
609,9	15,867
610,3	-1,133
610,8	26,467
611,2	2,867
611,7	1,267
612,1	3,667
612,6	16,667
613	-2,333
613,4	21,267
613,9	3,667
614,3	11,867
614,8	8,067
615,2	-20,133
615,7	30,667
616,1	15,467
616,6	-10,333
617	37,267
617,4	31,067
617,9	-7,733
618,3	19,267
618,8	11,067
619,2	-9,333
619,7	3,067
620,1	6,667
620,5	12,267
621	7,467
621,4	-8,533
621,9	18,067
622,3	11,467
622,8	14,267
623,2	16,067
623,6	22,067
624,1	35,267
624,5	17,867
625	21,067
625,4	7,067
625,9	45,867
626,3	-14,133
626,8	8,267
627,2	-13,933
627,6	17,867
628,1	-23,133
628,5	32,067
629	3,667
629,4	16,067
629,9	6,667
630,3	-12,133
630,7	-7,333
631,2	-18,333
631,6	22,067
632,1	-2,933
632,5	4,667
633	-0,333
633,4	15,867
633,8	35,267
634,3	-13,733
634,7	7,667
635,2	16,267
635,6	9,667
636,1	-26,333
636,5	-12,933
636,9	23,467
637,4	-12,933
637,8	16,067
638,3	-0,933
638,7	9,467
639,2	-15,933
639,6	-2,533
640	1,267
640,5	11,067
640,9	39,867
641,4	4,067
641,8	14,067
642,2	-6,733
642,7	-21,333
643,1	17,467
643,6	-15,533
644	-4,733
644,5	-5,333
644,9	17,267
645,3	26,267
645,8	19,067
646,2	1,467
646,7	3,467
647,1	-15,133
647,6	-3,333
648	30,067
648,4	-5,533
648,9	21,267
649,3	27,267
649,8	3,267
650,2	10,067
650,6	-6,733
651,1	7,867
651,5	19,867
652	-14,933
652,4	9,467
652,9	17,067
653,3	7,067
653,7	28,467
654,2	-17,733
654,6	2,267
655,1	10,867
655,5	18,667
655,9	-40,533
656,4	20,867
656,8	-18,933
657,3	36,867
657,7	16,067
658,2	4,867
658,6	-29,533
659	-13,133
659,5	-10,533
659,9	15,667
660,4	-25,133
660,8	4,067
661,2	-1,733
661,7	15,667
662,1	15,267
662,6	-6,133
663	-3,133
663,4	0,267
663,9	18,867
664,3	9,067
664,8	-8,533
665,2	8,867
665,6	2,867
666,1	3,267
666,5	-20,933
667	30,467
667,4	20,067
667,9	-2,933
668,3	-5,933
668,7	29,467
669,2	11,067
669,6	5,867
670,1	-3,533
670,5	-10,733
670,9	4,867
671,4	14,267
671,8	3,067
672,3	27,867
672,7	-0,333
673,1	24,667
673,6	22,667
674	21,467
674,5	-20,933
674,9	12,267
675,3	-1,533
675,8	-5,533
676,2	4,067
676,7	16,267
677,1	-18,933
677,5	36,467
678	13,867
678,4	23,267
678,9	2,067
679,3	-5,733
679,7	5,867
680,2	2,467
680,6	25,667
681,1	17,067
681,5	-11,333
681,9	-12,133
682,4	5,667
682,8	9,267
683,3	-1,933
683,7	34,467
684,1	2,467
684,6	14,467
685	8,067
685,5	-7,733
685,9	4,867
686,3	6,867
686,8	-28,533
687,2	-7,333
687,7	1,467
688,1	-0,533
688,5	9,467
689	22,867
689,4	-9,333
689,9	15,267
690,3	1,867
690,7	12,867
691,2	-2,733
691,6	-37,333
692	19,667
692,5	8,067
692,9	10,667
693,4	-17,133
693,8	13,667
694,2	7,467
694,7	11,667
695,1	-11,133
695,6	-1,333
696	8,467
696,4	-0,733
696,9	20,867
697,3	-12,133
697,8	23,867
698,2	-6,733
698,6	11,867
699,1	1,867
699,5	-3,933
699,9	17,067
700,4	13,067
700,8	29,067
701,3	21,867
701,7	-1,933
702,1	7,667
702,6	-3,733
703	33,067
703,5	-4,533
703,9	-1,733
704,3	-27,533
704,8	6,067
705,2	37,067
705,6	17,467
706,1	-0,533
706,5	-8,333
707	-14,333
707,4	-28,533
707,8	24,067
708,3	5,067
708,7	-16,333
709,2	-14,333
709,6	2,267
710	12,667
710,5	-23,533
710,9	33,667
711,3	19,067
711,8	8,667
712,2	11,867
712,7	6,267
713,1	24,667
713,5	-7,333
714	13,067
714,4	-2,533
714,8	21,667
715,3	1,067
715,7	5,667
716,2	29,867
716,6	5,267
717	-11,333
717,5	21,067
717,9	20,267
718,3	15,267
718,8	13,267
719,2	34,667
719,7	-8,333
720,1	38,267
720,5	-10,733
721	-11,733
721,4	32,467
721,8	-3,333
722,3	-7,333
722,7	-20,133
723,2	45,067
723,6	-11,933
724	-16,333
724,5	-1,933
724,9	2,667
725,3	23,667
725,8	10,867
726,2	38,667
726,7	20,667
727,1	25,667
727,5	40,067
728	-9,133
728,4	-12,133
728,8	-13,933
729,3	-7,533
729,7	9,867
730,1	3,267
730,6	28,067
731	-14,733
731,5	0,467
731,9	-5,733
732,3	17,267
732,8	3,067
733,2	-19,133
733,6	-19,133
734,1	3,067
734,5	8,267
734,9	5,067
735,4	-15,333
735,8	3,667
736,3	18,667
736,7	13,867
737,1	-18,533
737,6	1,867
738	-14,733
738,4	-0,333
738,9	9,867
739,3	10,867
739,7	13,667
740,2	-9,333
740,6	20,667
741,1	41,267
741,5	8,067
741,9	12,267
742,4	35,467
742,8	4,467
743,2	21,867
743,7	6,667
744,1	-7,133
744,5	3,867
745	-4,333
745,4	31,667
745,8	-15,133
746,3	-11,533
746,7	12,667
747,2	28,867
747,6	14,667
748	9,667
748,5	12,067
748,9	17,067
749,3	-11,333
749,8	10,667
750,2	-10,333
750,6	12,467
751,1	-4,733
751,5	40,667
751,9	11,267
752,4	10,067
752,8	9,867
753,3	-2,133
753,7	6,467
754,1	-0,333
754,6	0,267
755	17,667
755,4	17,467
755,9	9,067
756,3	-6,733
756,7	-14,333
757,2	20,867
757,6	4,267
758	8,067
758,5	-13,133
758,9	-19,933
759,3	22,267
759,8	16,467
760,2	36,267
760,6	12,467
761,1	4,867
761,5	-21,733
761,9	35,867
762,4	28,467
762,8	-22,133
763,3	10,667
763,7	16,067
764,1	4,667
764,6	-12,333
765	5,867
765,4	5,067
765,9	32,867
766,3	17,467
766,7	23,267
767,2	19,667
767,6	18,867
768	-6,533
768,5	11,667
768,9	-36,333
769,3	18,267
769,8	-9,933
770,2	19,067
770,6	21,867
771,1	-53,333
771,5	51,067
771,9	-0,733
772,4	14,667
772,8	25,267
773,2	51,467
773,7	-24,333
774,1	-14,933
774,5	34,667
775	-18,333
775,4	14,067
775,8	3,667
776,3	14,267
776,7	-7,733
777,1	0,067
777,6	-14,733
778	42,467
778,4	-9,533
778,9	8,467
779,3	-50,533
779,7	-19,333
780,2	-6,733
780,6	-9,133
781	-1,133
781,5	8,667
781,9	15,667
782,3	38,867
782,8	7,867
783,2	-0,133
783,6	-1,733
784,1	32,867
784,5	-30,533
784,9	9,667
785,4	-1,133
785,8	2,067
786,2	-1,733
786,7	-7,733
787,1	10,067
787,5	1,867
788	7,067
788,4	-9,533
788,8	10,267
789,3	-1,333
789,7	8,667
790,1	-8,533
790,6	12,267
791	-0,333
791,4	-1,733
791,9	0,067
792,3	13,467
792,7	-1,733
793,2	-4,733
793,6	-5,133
794	-13,933
794,5	5,867
794,9	0,667
795,3	31,067
795,8	-20,333
796,2	9,067
796,6	-5,533
797,1	-15,733
797,5	9,467
797,9	-15,333
798,4	21,867
798,8	15,867
799,2	13,267
799,7	-18,733
800,1	44,467
800,5	23,067
801	-0,333
801,4	21,067
801,8	18,067
802,2	37,867
802,7	-2,333
803,1	20,267
803,5	-1,333
804	30,467
804,4	-13,933
804,8	-13,533
805,3	-50,133
805,7	-31,733
806,1	-2,133
806,6	-9,933
807	-19,133
807,4	-17,933
807,9	13,267
808,3	-34,733
808,7	12,467
809,2	-20,133
809,6	16,467
810	22,867
810,4	5,867
810,9	1,067
811,3	45,267
811,7	9,867
812,2	-29,533
812,6	15,467
813	24,067
813,5	32,467
813,9	6,067
814,3	-1,133
814,8	2,267
815,2	6,667
815,6	20,467
816,1	-3,933
816,5	24,067
816,9	5,867
817,3	-2,733
817,8	-8,533
818,2	-15,533
818,6	1,467
819,1	-7,533
819,5	7,267
819,9	16,067
820,4	6,467
820,8	18,267
821,2	2,067
821,7	-2,933
822,1	17,067
822,5	8,467
822,9	7,867
823,4	20,067
823,8	14,667
824,2	22,667
824,7	0,667
825,1	32,267
825,5	-13,933
826	19,267
826,4	4,667
826,8	25,067
827,3	0,867
827,7	0,067
828,1	1,267
828,5	8,467
829	-19,333
829,4	18,867
829,8	-19,933
830,3	-1,133
830,7	-7,133
831,1	25,067
831,6	25,667
832	13,867
832,4	33,467
832,8	-2,133
833,3	-35,333
833,7	6,667
834,1	-3,533
834,6	-4,733
835	-5,333
835,4	-16,333
835,8	21,467
836,3	44,867
836,7	13,467
837,1	19,467
837,6	10,867
838	7,467
838,4	14,667
838,9	-0,333
839,3	6,067
839,7	-8,133
840,1	-4,533
840,6	44,467
841	2,267
841,4	9,067
841,9	-6,733
842,3	-2,733
842,7	12,867
843,1	6,467
843,6	1,667
844	26,867
844,4	12,867
844,9	10,467
845,3	-0,133
845,7	6,067
846,2	9,867
846,6	24,467
847	9,067
847,4	27,067
847,9	20,067
848,3	-1,933
848,7	13,867
849,2	-0,733
849,6	-8,933
850	-12,933
850,4	47,467
850,9	-11,733
851,3	18,667
851,7	41,067
852,2	30,067
852,6	6,067
853	-2,933
853,4	18,067
853,9	-28,533
854,3	9,867
854,7	-7,333
855,2	-2,533
855,6	-1,333
856	22,467
856,4	-19,733
856,9	31,267
857,3	5,467
857,7	10,667
858,2	3,267
858,6	10,667
859	10,867
859,4	-30,533
859,9	-7,933
860,3	-19,133
860,7	17,267
861,1	-0,533
861,6	-0,133
862	10,467
862,4	11,867
862,9	27,667
863,3	4,667
863,7	16,867
864,1	-3,933
864,6	23,867
865	30,867
865,4	-23,733
865,9	12,267
866,3	1,067
866,7	8,667
867,1	17,867
867,6	37,267
868	14,867
868,4	-4,733
868,8	-3,933
869,3	10,467
869,7	27,867
870,1	-12,933
870,6	19,467
871	13,667
871,4	-4,133
871,8	13,667
872,3	7,267
872,7	13,467
873,1	18,867
873,5	2,867
874	35,267
874,4	8,467
874,8	5,067
875,3	2,867
875,7	-20,933
876,1	-3,333
876,5	39,267
877	-9,333
877,4	16,267
877,8	3,867
878,2	18,467
878,7	16,067
879,1	13,467
879,5	40,667
879,9	16,667
880,4	16,867
880,8	3,667
881,2	-4,133
881,7	6,667
882,1	-8,733
882,5	9,867
882,9	-3,533
883,4	-4,733
883,8	13,267
884,2	-17,733
884,6	-11,133
885,1	-12,333
885,5	1,667
885,9	19,067
886,3	15,667
886,8	43,667
887,2	-12,533
887,6	0,667
888	-0,533
888,5	26,267
888,9	18,467
889,3	1,467
889,8	22,067
890,2	7,867
890,6	-13,333
891	10,867
891,5	-4,933
891,9	10,467
892,3	12,667
892,7	24,267
893,2	-5,933
893,6	23,267
894	-29,333
894,4	-16,333
894,9	7,267
895,3	-11,133
895,7	32,667
896,1	38,467
896,6	-2,933
897	-17,933
897,4	-0,333
897,8	-6,533
898,3	-9,733
898,7	32,667
899,1	-17,933
899,5	3,467
900	-0,533
900,4	-8,133
900,8	14,067
901,2	-0,533
901,7	3,867
902,1	-33,533
902,5	-19,933
902,9	9,867
903,4	-2,733
903,8	-31,733
904,2	-2,933
904,6	9,067
905,1	-18,533
905,5	1,467
905,9	-32,533
906,3	-11,133
906,8	9,867
907,2	6,267
907,6	3,867
908	10,667
908,5	-14,933
908,9	11,267
909,3	-22,333
909,7	4,467
910,2	6,067
910,6	-15,533
911	10,267
911,4	4,267
911,9	-12,133
912,3	-2,533
912,7	-1,733
913,1	24,867
913,6	3,867
914	-21,933
914,4	13,467
914,8	11,067
915,3	-4,933
915,7	22,267
916,1	21,867
916,5	2,467
916,9	1,867
917,4	8,867
917,8	28,667
918,2	17,267
918,6	-3,733
919,1	-3,333
919,5	-6,133
919,9	7,467
920,3	-22,933
920,8	41,267
921,2	-7,133
921,6	-6,333
922	28,067
922,5	-12,733
922,9	7,267
923,3	22,267
923,7	16,667
924,2	6,467
924,6	-7,933
925	31,467
925,4	15,067
925,8	-9,533
926,3	-20,933
926,7	0,067
927,1	-1,933
927,5	-19,733
928	-5,933
928,4	13,667
928,8	19,467
929,2	-28,533
929,7	24,467
930,1	13,867
930,5	-20,533
930,9	13,267
931,3	-17,733
931,8	-6,533
932,2	-8,333
932,6	-1,333
933	21,867
933,5	6,067
933,9	21,667
934,3	14,067
934,7	11,267
935,2	3,067
935,6	-12,533
936	-21,333
936,4	-22,733
936,8	4,467
937,3	-1,733
937,7	-11,333
938,1	-0,933
938,5	9,267
939	18,467
939,4	24,467
939,8	14,467
940,2	-17,333
940,6	12,667
941,1	20,667
941,5	13,467
941,9	4,667
942,3	19,667
942,8	8,867
943,2	-17,133
943,6	9,267
944	-24,733
944,4	21,267
944,9	-4,533
945,3	9,867
945,7	-7,933
946,1	1,067
946,6	12,267
947	-3,533
947,4	2,667
947,8	-14,133
948,2	28,267
948,7	4,667
949,1	1,867
949,5	-7,133
949,9	1,267
950,3	18,267
950,8	-3,533
951,2	-11,733
951,6	-10,733
952	19,667
952,5	-15,333
952,9	15,267
953,3	4,267
953,7	12,067
954,1	24,467
954,6	15,867
955	17,867
955,4	-4,133
955,8	-4,933
956,2	30,867
956,7	-1,933
957,1	9,667
957,5	-18,733
957,9	34,067
958,3	0,867
958,8	7,867
959,2	18,067
959,6	-4,133
960	8,067
960,5	21,267
960,9	-7,933
961,3	3,467
961,7	-28,533
962,1	-28,133
962,6	18,867
963	-10,533
963,4	-5,133
963,8	12,667
964,2	32,267
964,7	27,667
965,1	20,467
965,5	1,067
965,9	33,467
966,3	-11,333
966,8	-1,933
967,2	-3,933
967,6	10,267
968	-8,733
968,4	-4,533
968,9	2,267
969,3	29,867
969,7	-22,533
970,1	0,267
970,5	-6,933
971	9,667
971,4	0,467
971,8	19,067
972,2	24,467
972,6	23,067
973,1	12,267
973,5	2,667
973,9	5,667
974,3	-9,933
974,7	19,267
975,2	22,267
975,6	18,067
976	23,267
976,4	-9,733
976,8	16,467
977,3	-3,133
977,7	9,467
978,1	-2,933
978,5	1,667
978,9	-1,133
979,4	-2,733
979,8	12,267
980,2	5,067
980,6	5,467
981	-0,133
981,5	9,067
981,9	1,067
982,3	-0,533
982,7	15,667
983,1	17,267
983,6	-0,733
984	-21,533
984,4	9,667
984,8	9,667
985,2	6,867
985,6	27,067
986,1	-16,133
986,5	-19,133
986,9	9,267
987,3	5,467
987,7	-7,933
988,2	26,067
988,6	16,267
989	30,267
989,4	-2,133
989,8	-6,333
990,3	-0,133
990,7	-5,733
991,1	17,667
991,5	29,467
991,9	6,667
992,3	10,267
992,8	5,667
993,2	5,067
993,6	3,067
994	23,267
994,4	27,467
994,9	-23,933
995,3	14,267
995,7	-3,133
996,1	31,267
996,5	31,267
996,9	21,667
997,4	7,467
997,8	5,867
998,2	-29,533
998,6	-8,533
999	14,667
999,5	2,067
999,9	-2,533
1000,3	-2,733
1000,7	14,267
1001,1	-18,133
1001,5	-20,333
1002	7,267
1002,4	-11,933
1002,8	-16,933
1003,2	5,267
1003,6	11,667
1004	27,067
1004,5	39,667
1004,9	11,467
1005,3	11,067
1005,7	0,267
1006,1	10,667
1006,6	8,067
1007	-4,333
1007,4	13,867
1007,8	-7,133
1008,2	6,067
1008,6	-15,333
1009,1	7,467
1009,5	9,667
1009,9	-18,533
1010,3	-10,933
1010,7	-4,533
1011,1	17,667
1011,6	8,267
1012	16,267
1012,4	7,067
1012,8	1,667
1013,2	-1,733
1013,6	9,467
1014,1	19,267
1014,5	21,267
1014,9	1,067
1015,3	-11,333
1015,7	11,667
1016,1	-10,333
1016,6	4,667
1017	5,867
1017,4	14,267
1017,8	-1,133
1018,2	-10,733
1018,6	10,867
1019,1	28,467
1019,5	19,467
1019,9	15,267
1020,3	24,467
1020,7	5,267
1021,1	6,867
1021,6	-3,333
1022	27,667
1022,4	5,867
1022,8	-21,133
1023,2	4,667
1023,6	-9,533
1024,1	4,867
1024,5	-11,533
1024,9	-0,133
1025,3	6,467
1025,7	-1,333
1026,1	14,667
1026,6	-1,533
1027	-8,533
1027,4	-2,933
1027,8	-15,533
1028,2	-1,133
1028,6	18,667
1029	-15,733
1029,5	-20,733
1029,9	-1,533
1030,3	-2,133
1030,7	13,267
1031,1	-24,133
1031,5	26,867
1032	1,467
1032,4	20,867
1032,8	-2,733
1033,2	17,667
1033,6	19,467
1034	4,467
1034,4	-3,733
1034,9	1,067
1035,3	7,467
1035,7	19,067
1036,1	4,067
1036,5	48,667
1036,9	19,867
1037,4	6,867
1037,8	33,667
1038,2	-7,333
1038,6	-12,933
1039	14,667
1039,4	9,467
1039,8	-11,733
1040,3	20,467
1040,7	3,267
1041,1	53,067
1041,5	12,067
1041,9	11,867
1042,3	7,267
1042,7	0,067
1043,2	20,267
1043,6	15,867
1044	-11,133
1044,4	11,867
1044,8	-2,133
1045,2	-12,133
1045,6	17,467
1046,1	7,067
1046,5	5,867
1046,9	-14,133
1047,3	20,667
1047,7	17,467
1048,1	6,667
1048,5	50,467
1049	-4,333
1049,4	-2,133
1049,8	5,467
1050,2	7,067
1050,6	14,667
1051	-11,133
1051,4	-5,733
1051,9	7,667
1052,3	-1,133
1052,7	-8,333
1053,1	18,467
1053,5	-4,333
1053,9	29,667
1054,3	-0,333
1054,8	-2,133
1055,2	-18,333
1055,6	6,267
1056	10,467
1056,4	-34,733
1056,8	23,267
1057,2	9,467
1057,6	3,267
1058,1	7,467
1058,5	-3,133
1058,9	-14,133
1059,3	7,667
1059,7	1,467
1060,1	18,867
1060,5	-0,533
1061	8,267
1061,4	6,467
1061,8	-5,133
1062,2	8,667
1062,6	1,867
1063	-13,533
1063,4	33,667
1063,8	6,867
1064,3	0,467
1064,7	-14,133
1065,1	8,067
1065,5	11,867
1065,9	5,267
1066,3	15,467
1066,7	13,267
1067,1	39,667
1067,6	-20,533
1068	20,467
1068,4	15,467
1068,8	11,267
1069,2	12,667
1069,6	-5,733
1070	26,867
1070,4	-15,733
1070,9	-3,333
1071,3	-4,933
1071,7	20,867
1072,1	23,867
1072,5	-4,933
1072,9	26,867
1073,3	34,667
1073,7	14,067
1074,2	6,067
1074,6	-10,333
1075	0,467
1075,4	31,467
1075,8	1,067
1076,2	-12,333
1076,6	8,867
1077	-0,133
1077,5	6,667
1077,9	-8,533
1078,3	6,467
1078,7	8,467
1079,1	9,667
1079,5	13,667
1079,9	27,867
1080,3	29,067
1080,7	19,667
1081,2	8,467
1081,6	18,267
1082	14,067
1082,4	4,667
1082,8	0,667
1083,2	-2,933
1083,6	27,867
1084	7,467
1084,5	-7,933
1084,9	28,667
1085,3	29,667
1085,7	-6,333
1086,1	23,067
1086,5	1,867
1086,9	-15,333
1087,3	-34,133
1087,7	25,267
1088,2	2,267
1088,6	-11,733
1089	-37,933
1089,4	6,667
1089,8	3,267
1090,2	-21,733
1090,6	9,067
1091	10,467
1091,4	2,467
1091,9	-1,133
1092,3	-5,133
1092,7	26,867
1093,1	9,267
1093,5	-35,333
1093,9	-7,333
1094,3	16,867
1094,7	-10,533
1095,1	-1,933
1095,5	14,067
1096	12,667
1096,4	30,067
1096,8	3,267
1097,2	22,267
1097,6	-3,333
1098	7,667
1098,4	19,867
1098,8	12,267
1099,2	15,067
1099,6	-11,533
1100,1	7,667
1100,5	3,267
1100,9	9,267
1101,3	14,667
1101,7	-1,333
1102,1	1,067
1102,5	4,467
1102,9	6,667
1103,3	17,867
1103,7	-8,333
1104,2	17,867
1104,6	12,267
1105	-13,133
1105,4	-2,133
1105,8	-17,533
1106,2	1,467
1106,6	15,667
1107	-1,133
1107,4	2,267
1107,8	2,467
1108,3	-0,733
