Data from Subt2_00002.txt Node
Date: Wed Aug 02 18:50:07 MSK 2023
User: vat
Spectrometer: MAYP114033
Trigger mode: 0
Integration Time (sec): 7,000000E-1
Scans to average: 5
Electric dark correction enabled: true
Nonlinearity correction enabled: false
Boxcar width: 0
XAxis mode: Wavelengths
Number of Pixels in Spectrum: 2068
>>>>>Begin Spectral Data<<<<<
199,4	-1,633
199,9	-0,233
200,4	-1,833
200,8	0,967
201,3	-1,033
201,8	4,967
202,2	0,367
202,7	-4,033
203,2	13,367
203,6	11,367
204,1	6,767
204,6	-14,833
205	19,967
205,5	-11,233
206	1,367
206,4	10,767
206,9	13,367
207,4	22,367
207,8	25,967
208,3	21,767
208,8	1,167
209,2	0,567
209,7	-2,833
210,2	-5,033
210,6	7,567
211,1	7,967
211,5	-20,433
212	-8,233
212,5	-11,833
212,9	9,367
213,4	-10,433
213,9	-2,633
214,3	14,567
214,8	8,567
215,3	-10,033
215,7	28,567
216,2	2,967
216,7	25,367
217,1	-2,633
217,6	-6,633
218,1	7,967
218,5	-5,833
219	9,767
219,5	23,167
219,9	15,367
220,4	7,567
220,9	-2,633
221,3	28,767
221,8	4,567
222,3	-6,033
222,7	-18,033
223,2	-2,433
223,6	4,167
224,1	-23,233
224,6	-5,633
225	5,167
225,5	47,167
226	-19,833
226,4	-10,033
226,9	16,367
227,4	39,567
227,8	-11,233
228,3	0,367
228,8	-9,233
229,2	0,967
229,7	-5,233
230,2	13,767
230,6	15,967
231,1	18,567
231,5	-9,633
232	-24,833
232,5	7,367
232,9	-26,033
233,4	4,767
233,9	2,167
234,3	-29,633
234,8	4,967
235,3	-1,033
235,7	-0,633
236,2	14,167
236,7	-34,233
237,1	24,567
237,6	-5,833
238,1	-7,633
238,5	4,967
239	13,767
239,4	-26,833
239,9	0,167
240,4	10,567
240,8	27,967
241,3	-1,833
241,8	4,967
242,2	-5,233
242,7	-8,833
243,2	24,567
243,6	-9,633
244,1	-12,033
244,6	16,767
245	8,967
245,5	-7,433
245,9	11,767
246,4	18,367
246,9	-23,233
247,3	9,767
247,8	37,167
248,3	36,567
248,7	1,967
249,2	9,967
249,7	7,167
250,1	10,767
250,6	-5,633
251	14,167
251,5	42,767
252	39,567
252,4	19,367
252,9	10,767
253,4	13,567
253,8	-24,433
254,3	38,767
254,8	8,367
255,2	28,167
255,7	10,167
256,1	9,567
256,6	-5,633
257,1	-13,033
257,5	-0,033
258	-0,633
258,5	23,567
258,9	-18,833
259,4	25,967
259,9	-16,233
260,3	28,967
260,8	15,967
261,2	-18,033
261,7	12,967
262,2	23,567
262,6	-0,233
263,1	22,967
263,6	5,167
264	19,967
264,5	-52,833
264,9	2,967
265,4	0,167
265,9	-33,033
266,3	-1,233
266,8	15,967
267,3	13,967
267,7	-4,233
268,2	8,767
268,7	14,767
269,1	1,767
269,6	30,567
270	16,167
270,5	-9,433
271	6,967
271,4	15,167
271,9	6,967
272,4	-2,233
272,8	-6,233
273,3	-1,233
273,7	16,167
274,2	-4,033
274,7	-3,633
275,1	15,167
275,6	-4,033
276,1	4,167
276,5	-4,233
277	-10,633
277,4	0,567
277,9	-8,433
278,4	-8,233
278,8	17,967
279,3	1,967
279,8	-11,233
280,2	-2,433
280,7	-17,033
281,1	-13,833
281,6	2,567
282,1	-19,633
282,5	6,967
283	3,167
283,4	-10,233
283,9	10,567
284,4	-7,633
284,8	-8,833
285,3	-7,433
285,8	25,567
286,2	3,167
286,7	3,967
287,1	-30,633
287,6	-10,433
288,1	5,367
288,5	8,967
289	3,767
289,5	-23,233
289,9	-10,033
290,4	15,967
290,8	20,967
291,3	19,167
291,8	11,367
292,2	24,167
292,7	-5,033
293,1	24,167
293,6	-5,033
294,1	16,967
294,5	6,167
295	18,967
295,5	9,167
295,9	29,767
296,4	27,167
296,8	14,567
297,3	-5,033
297,8	13,967
298,2	9,767
298,7	-3,633
299,1	11,567
299,6	-39,433
300,1	-15,033
300,5	1,567
301	29,167
301,5	6,167
301,9	20,767
302,4	0,767
302,8	19,367
303,3	-15,833
303,8	12,367
304,2	19,367
304,7	19,967
305,1	30,967
305,6	6,167
306,1	1,367
306,5	31,767
307	14,367
307,4	6,967
307,9	-8,433
308,4	18,967
308,8	6,767
309,3	0,967
309,8	15,367
310,2	10,567
310,7	-9,233
311,1	-21,233
311,6	19,967
312,1	20,967
312,5	12,567
313	22,967
313,4	10,367
313,9	2,767
314,4	2,967
314,8	8,967
315,3	23,167
315,7	-10,233
316,2	-18,033
316,7	-29,633
317,1	-2,233
317,6	26,967
318	30,967
318,5	-35,433
319	7,367
319,4	13,767
319,9	-15,033
320,3	-11,633
320,8	-23,233
321,3	28,567
321,7	10,967
322,2	-3,433
322,6	3,167
323,1	22,567
323,6	4,567
324	-5,033
324,5	39,367
324,9	2,567
325,4	18,567
325,9	-37,033
326,3	30,567
326,8	24,767
327,2	1,767
327,7	25,567
328,2	6,167
328,6	15,767
329,1	17,367
329,5	-18,633
330	44,967
330,5	17,167
330,9	24,967
331,4	15,567
331,8	-5,833
332,3	2,967
332,8	21,767
333,2	14,967
333,7	5,767
334,1	-22,033
334,6	2,567
335,1	-15,433
335,5	20,767
336	-10,433
336,4	25,367
336,9	14,367
337,4	5,767
337,8	-5,033
338,3	20,367
338,7	6,767
339,2	-11,433
339,7	31,567
340,1	-0,233
340,6	37,167
341	15,167
341,5	-14,233
342	34,167
342,4	-12,633
342,9	25,567
343,3	-26,233
343,8	-5,833
344,2	-1,033
344,7	-15,233
345,2	19,567
345,6	-22,633
346,1	12,967
346,5	13,967
347	4,967
347,5	0,567
347,9	-15,633
348,4	-2,033
348,8	22,167
349,3	9,967
349,8	33,567
350,2	4,367
350,7	22,967
351,1	-18,033
351,6	37,967
352	-11,433
352,5	6,567
353	-16,233
353,4	7,767
353,9	38,167
354,3	20,567
354,8	65,367
355,3	12,967
355,7	55,967
356,2	26,567
356,6	57,367
357,1	60,967
357,5	120,767
358	108,567
358,5	104,767
358,9	120,367
359,4	133,767
359,8	118,567
360,3	187,167
360,8	217,767
361,2	202,367
361,7	260,967
362,1	265,167
362,6	336,767
363	351,567
363,5	390,967
364	422,767
364,4	482,767
364,9	557,367
365,3	572,567
365,8	637,967
366,3	702,967
366,7	722,567
367,2	767,767
367,6	765,367
368,1	810,167
368,5	862,967
369	851,967
369,5	847,967
369,9	852,367
370,4	818,767
370,8	818,367
371,3	784,167
371,7	747,967
372,2	697,767
372,7	681,167
373,1	675,967
373,6	621,767
374	610,367
374,5	567,367
374,9	511,767
375,4	479,567
375,9	442,167
376,3	386,767
376,8	374,967
377,2	345,167
377,7	316,367
378,2	290,367
378,6	278,367
379,1	244,167
379,5	226,367
380	219,767
380,4	181,967
380,9	190,167
381,4	167,967
381,8	136,167
382,3	164,567
382,7	137,367
383,2	112,567
383,6	144,367
384,1	132,967
384,6	113,967
385	93,167
385,5	96,167
385,9	121,567
386,4	92,367
386,8	85,967
387,3	68,767
387,7	70,367
388,2	83,967
388,7	77,367
389,1	75,367
389,6	61,567
390	61,967
390,5	46,367
390,9	47,167
391,4	51,167
391,9	39,967
392,3	11,767
392,8	1,967
393,2	42,167
393,7	29,367
394,1	49,567
394,6	21,367
395,1	66,367
395,5	25,367
396	31,567
396,4	33,567
396,9	49,167
397,3	23,967
397,8	30,767
398,2	43,367
398,7	28,767
399,2	21,767
399,6	62,167
400,1	32,367
400,5	5,367
401	17,167
401,4	37,767
401,9	37,167
402,4	19,367
402,8	40,367
403,3	15,567
403,7	27,167
404,2	36,367
404,6	48,767
405,1	47,767
405,5	33,167
406	29,767
406,5	16,367
406,9	39,367
407,4	19,567
407,8	27,767
408,3	29,167
408,7	50,367
409,2	10,367
409,6	39,967
410,1	47,167
410,6	32,967
411	0,967
411,5	38,967
411,9	34,167
412,4	13,567
412,8	30,367
413,3	21,967
413,7	89,167
414,2	36,567
414,7	25,967
415,1	29,367
415,6	57,367
416	47,567
416,5	40,167
416,9	34,367
417,4	59,567
417,8	54,567
418,3	21,167
418,8	63,767
419,2	30,967
419,7	55,167
420,1	67,167
420,6	57,167
421	57,367
421,5	77,767
421,9	39,967
422,4	54,767
422,8	72,767
423,3	49,567
423,8	51,767
424,2	54,967
424,7	82,567
425,1	94,767
425,6	95,367
426	62,167
426,5	69,367
426,9	42,767
427,4	72,967
427,9	62,367
428,3	67,967
428,8	96,767
429,2	53,967
429,7	70,967
430,1	71,567
430,6	97,367
431	108,167
431,5	100,167
431,9	59,167
432,4	120,367
432,8	70,167
433,3	102,167
433,8	113,767
434,2	115,767
434,7	82,567
435,1	107,967
435,6	126,167
436	102,367
436,5	127,567
436,9	102,967
437,4	115,767
437,8	136,167
438,3	144,967
438,8	133,967
439,2	129,567
439,7	138,567
440,1	158,567
440,6	159,167
441	174,167
441,5	147,167
441,9	190,967
442,4	159,567
442,8	179,967
443,3	184,167
443,7	192,967
444,2	206,967
444,7	201,767
445,1	224,167
445,6	248,567
446	238,567
446,5	240,167
446,9	244,767
447,4	249,167
447,8	270,167
448,3	279,167
448,7	298,767
449,2	308,767
449,6	302,167
450,1	339,967
450,6	342,767
451	372,567
451,5	338,567
451,9	370,567
452,4	394,567
452,8	429,767
453,3	420,967
453,7	430,367
454,2	426,767
454,6	445,767
455,1	471,167
455,5	492,967
456	485,567
456,4	493,967
456,9	517,567
457,3	534,567
457,8	555,967
458,3	583,967
458,7	606,367
459,2	630,567
459,6	657,367
460,1	639,767
460,5	657,567
461	711,167
461,4	715,367
461,9	722,767
462,3	734,967
462,8	767,367
463,2	747,967
463,7	772,967
464,1	828,967
464,6	829,167
465	840,167
465,5	871,967
466	880,967
466,4	917,167
466,9	950,567
467,3	973,367
467,8	979,767
468,2	1015,167
468,7	1019,567
469,1	1052,767
469,6	1029,967
470	1103,167
470,5	1106,767
470,9	1141,767
471,4	1134,167
471,8	1169,767
472,3	1197,567
472,7	1171,967
473,2	1245,367
473,6	1267,367
474,1	1230,767
474,5	1309,367
475	1341,767
475,4	1346,167
475,9	1334,767
476,4	1384,367
476,8	1384,967
477,3	1412,767
477,7	1429,367
478,2	1428,367
478,6	1446,367
479,1	1465,967
479,5	1522,767
480	1508,967
480,4	1550,967
480,9	1544,367
481,3	1512,967
481,8	1574,567
482,2	1581,367
482,7	1592,167
483,1	1627,767
483,6	1609,967
484	1616,767
484,5	1672,167
484,9	1672,767
485,4	1685,367
485,8	1688,767
486,3	1677,167
486,7	1717,567
487,2	1737,767
487,6	1719,167
488,1	1737,767
488,5	1743,167
489	1761,767
489,4	1727,167
489,9	1750,167
490,4	1754,767
490,8	1753,567
491,3	1751,367
491,7	1773,167
492,2	1775,567
492,6	1783,367
493,1	1797,167
493,5	1787,967
494	1780,167
494,4	1795,767
494,9	1773,767
495,3	1792,567
495,8	1768,967
496,2	1767,767
496,7	1770,567
497,1	1758,967
497,6	1748,367
498	1786,167
498,5	1761,967
498,9	1784,367
499,4	1762,567
499,8	1773,967
500,3	1730,767
500,7	1750,367
501,2	1730,767
501,6	1754,167
502,1	1712,367
502,5	1688,167
503	1705,767
503,4	1723,567
503,9	1709,967
504,3	1652,767
504,8	1689,767
505,2	1681,167
505,7	1654,567
506,1	1654,367
506,6	1626,967
507	1639,567
507,5	1629,967
507,9	1612,367
508,4	1652,767
508,8	1626,367
509,3	1604,967
509,7	1598,367
510,2	1572,567
510,6	1600,167
511,1	1557,367
511,5	1524,967
512	1550,167
512,4	1549,167
512,9	1509,167
513,3	1555,367
513,8	1507,167
514,2	1537,167
514,7	1494,167
515,1	1506,567
515,6	1503,367
516	1489,367
516,5	1506,967
516,9	1439,167
517,4	1445,767
517,8	1463,367
518,3	1463,367
518,7	1450,767
519,2	1419,167
519,6	1371,567
520,1	1394,767
520,5	1385,167
521	1371,367
521,4	1396,367
521,9	1375,567
522,3	1318,767
522,8	1355,167
523,2	1392,767
523,7	1314,367
524,1	1315,167
524,6	1342,167
525	1304,767
525,5	1301,167
525,9	1305,967
526,4	1278,767
526,8	1315,367
527,3	1306,167
527,7	1268,367
528,2	1312,767
528,6	1258,767
529,1	1290,367
529,5	1262,167
530	1293,167
530,4	1252,367
530,9	1246,967
531,3	1215,767
531,8	1238,567
532,2	1238,367
532,6	1191,367
533,1	1226,967
533,5	1219,167
534	1196,767
534,4	1233,567
534,9	1193,167
535,3	1233,567
535,8	1197,967
536,2	1212,367
536,7	1176,967
537,1	1191,567
537,6	1195,767
538	1204,967
538,5	1179,367
538,9	1164,367
539,4	1166,767
539,8	1203,767
540,3	1155,167
540,7	1135,167
541,2	1148,967
541,6	1160,167
542,1	1165,167
542,5	1136,967
543	1124,567
543,4	1145,967
543,9	1175,367
544,3	1120,567
544,8	1151,167
545,2	1109,567
545,7	1118,367
546,1	1128,367
546,5	1154,567
547	1079,567
547,4	1133,167
547,9	1117,367
548,3	1113,967
548,8	1129,367
549,2	1091,767
549,7	1108,767
550,1	1101,567
550,6	1084,167
551	1054,367
551,5	1077,567
551,9	1073,967
552,4	1069,567
552,8	1078,967
553,3	1111,367
553,7	1078,967
554,2	1073,367
554,6	1097,967
555,1	1092,567
555,5	1080,167
555,9	1078,167
556,4	1081,567
556,8	1101,567
557,3	1080,767
557,7	1053,367
558,2	1043,767
558,6	1054,367
559,1	1053,767
559,5	1098,367
560	1065,767
560,4	1041,167
560,9	1031,967
561,3	1083,367
561,8	1057,967
562,2	1057,167
562,7	1052,967
563,1	1024,367
563,6	1071,967
564	1056,367
564,4	1051,367
564,9	1059,367
565,3	1022,967
565,8	1056,367
566,2	1038,167
566,7	1075,567
567,1	1024,167
567,6	1023,967
568	1070,367
568,5	1030,967
568,9	1027,967
569,4	1022,367
569,8	1005,967
570,3	1003,167
570,7	991,967
571,1	992,367
571,6	1022,167
572	1016,567
572,5	1016,567
572,9	1007,567
573,4	1015,167
573,8	989,967
574,3	1007,167
574,7	1005,767
575,2	999,567
575,6	968,767
576,1	1001,367
576,5	983,767
576,9	988,167
577,4	978,167
577,8	964,367
578,3	987,967
578,7	1011,967
579,2	941,567
579,6	959,567
580,1	934,767
580,5	958,767
581	980,167
581,4	974,767
581,9	965,967
582,3	979,567
582,7	979,367
583,2	952,767
583,6	955,167
584,1	956,567
584,5	938,967
585	941,567
585,4	908,767
585,9	933,167
586,3	936,167
586,8	897,167
587,2	938,367
587,6	895,367
588,1	914,967
588,5	942,767
589	885,767
589,4	927,367
589,9	895,967
590,3	898,167
590,8	894,567
591,2	896,567
591,7	887,167
592,1	901,167
592,5	899,367
593	863,167
593,4	879,367
593,9	885,967
594,3	895,967
594,8	872,167
595,2	895,967
595,7	856,567
596,1	853,967
596,6	854,767
597	863,767
597,4	878,167
597,9	874,567
598,3	859,767
598,8	845,167
599,2	829,367
599,7	854,567
600,1	851,967
600,6	853,767
601	866,967
601,4	855,567
601,9	795,167
602,3	825,767
602,8	811,167
603,2	801,367
603,7	812,367
604,1	822,767
604,6	836,367
605	823,767
605,4	823,767
605,9	793,567
606,3	799,567
606,8	811,967
607,2	783,967
607,7	783,767
608,1	818,367
608,6	759,167
609	785,567
609,4	774,367
609,9	797,567
610,3	797,967
610,8	762,167
611,2	782,767
611,7	794,967
612,1	754,167
612,6	753,967
613	747,967
613,4	731,367
613,9	764,367
614,3	740,967
614,8	705,167
615,2	735,767
615,7	709,367
616,1	739,367
616,6	725,967
617	740,967
617,4	729,167
617,9	723,167
618,3	701,167
618,8	693,167
619,2	708,767
619,7	710,967
620,1	729,767
620,5	669,567
621	707,367
621,4	666,367
621,9	647,567
622,3	652,767
622,8	699,367
623,2	665,967
623,6	637,167
624,1	652,967
624,5	657,167
625	667,167
625,4	667,767
625,9	628,567
626,3	656,167
626,8	608,567
627,2	641,167
627,6	599,367
628,1	617,167
628,5	595,967
629	647,967
629,4	599,567
629,9	646,167
630,3	614,967
630,7	595,967
631,2	581,967
631,6	601,567
632,1	608,167
632,5	610,567
633	586,567
633,4	591,367
633,8	582,367
634,3	599,167
634,7	566,967
635,2	554,567
635,6	586,367
636,1	553,567
636,5	581,967
636,9	553,167
637,4	558,567
637,8	530,167
638,3	531,967
638,7	538,767
639,2	521,967
639,6	553,167
640	545,967
640,5	551,567
640,9	491,767
641,4	532,767
641,8	526,767
642,2	523,967
642,7	503,567
643,1	497,767
643,6	478,767
644	472,967
644,5	498,367
644,9	449,967
645,3	511,767
645,8	518,367
646,2	491,767
646,7	482,967
647,1	481,967
647,6	477,567
648	450,967
648,4	457,367
648,9	494,567
649,3	447,767
649,8	465,367
650,2	477,967
650,6	441,567
651,1	470,767
651,5	468,367
652	455,967
652,4	411,767
652,9	408,167
653,3	442,567
653,7	415,967
654,2	425,767
654,6	426,567
655,1	410,767
655,5	440,767
655,9	431,567
656,4	423,967
656,8	406,967
657,3	439,967
657,7	411,167
658,2	392,767
658,6	413,767
659	388,767
659,5	381,567
659,9	390,367
660,4	385,367
660,8	429,367
661,2	380,367
661,7	361,567
662,1	374,967
662,6	402,167
663	356,167
663,4	372,367
663,9	354,967
664,3	390,567
664,8	348,767
665,2	364,567
665,6	348,367
666,1	380,567
666,5	314,367
667	342,567
667,4	356,767
667,9	340,767
668,3	329,367
668,7	352,367
669,2	315,567
669,6	341,367
670,1	314,367
670,5	344,367
670,9	299,967
671,4	310,367
671,8	320,967
672,3	347,767
672,7	320,967
673,1	350,767
673,6	331,367
674	315,367
674,5	305,567
674,9	314,567
675,3	308,167
675,8	307,367
676,2	285,967
676,7	298,567
677,1	300,767
677,5	312,167
678	314,767
678,4	290,567
678,9	302,967
679,3	277,167
679,7	298,367
680,2	271,767
680,6	273,367
681,1	283,167
681,5	275,167
681,9	291,767
682,4	293,367
682,8	265,767
683,3	280,167
683,7	258,367
684,1	294,967
684,6	243,367
685	251,367
685,5	254,967
685,9	268,767
686,3	229,967
686,8	287,567
687,2	242,167
687,7	238,567
688,1	251,167
688,5	223,567
689	238,367
689,4	252,567
689,9	241,767
690,3	228,367
690,7	223,767
691,2	236,967
691,6	247,567
692	197,167
692,5	244,567
692,9	214,967
693,4	221,167
693,8	230,967
694,2	235,167
694,7	202,567
695,1	184,367
695,6	215,767
696	213,367
696,4	199,367
696,9	199,567
697,3	185,367
697,8	198,967
698,2	210,367
698,6	199,167
699,1	206,767
699,5	177,767
699,9	210,767
700,4	207,367
700,8	198,567
701,3	192,167
701,7	214,167
702,1	185,567
702,6	183,567
703	194,967
703,5	157,367
703,9	162,967
704,3	208,567
704,8	179,767
705,2	173,767
705,6	189,367
706,1	173,967
706,5	179,367
707	188,767
707,4	166,967
707,8	161,567
708,3	171,367
708,7	153,367
709,2	186,567
709,6	164,367
710	195,367
710,5	172,967
710,9	167,167
711,3	171,967
711,8	182,367
712,2	170,167
712,7	156,567
713,1	129,567
713,5	144,967
714	173,367
714,4	137,967
714,8	144,167
715,3	169,367
715,7	120,567
716,2	177,767
716,6	136,967
717	142,167
717,5	150,167
717,9	132,767
718,3	145,767
718,8	127,167
719,2	138,367
719,7	130,767
720,1	132,767
720,5	139,567
721	138,967
721,4	132,967
721,8	135,367
722,3	122,567
722,7	115,367
723,2	120,567
723,6	127,767
724	126,767
724,5	102,567
724,9	132,567
725,3	149,167
725,8	140,167
726,2	128,367
726,7	106,167
727,1	113,967
727,5	152,967
728	110,367
728,4	107,967
728,8	126,367
729,3	115,967
729,7	104,367
730,1	95,567
730,6	97,367
731	117,167
731,5	103,567
731,9	115,367
732,3	117,167
732,8	120,167
733,2	137,567
733,6	98,367
734,1	93,367
734,5	126,567
734,9	82,367
735,4	92,767
735,8	118,167
736,3	101,967
736,7	54,767
737,1	95,367
737,6	100,967
738	105,367
738,4	87,367
738,9	67,767
739,3	108,167
739,7	104,367
740,2	63,167
740,6	80,567
741,1	83,567
741,5	93,167
741,9	94,567
742,4	100,167
742,8	80,367
743,2	101,167
743,7	64,767
744,1	82,167
744,5	90,367
745	55,167
745,4	89,167
745,8	97,567
746,3	106,767
746,7	86,567
747,2	94,967
747,6	117,567
748	88,767
748,5	84,367
748,9	64,967
749,3	45,767
749,8	79,367
750,2	96,967
750,6	80,567
751,1	54,167
751,5	83,967
751,9	64,967
752,4	62,767
752,8	79,367
753,3	77,967
753,7	99,567
754,1	83,967
754,6	86,567
755	76,967
755,4	92,567
755,9	65,967
756,3	67,167
756,7	42,767
757,2	71,567
757,6	62,967
758	53,967
758,5	70,567
758,9	57,567
759,3	70,167
759,8	59,167
760,2	65,767
760,6	51,567
761,1	83,167
761,5	66,367
761,9	50,167
762,4	54,567
762,8	107,767
763,3	75,767
763,7	53,367
764,1	72,167
764,6	53,367
765	74,167
765,4	66,567
765,9	77,967
766,3	64,967
766,7	59,167
767,2	87,167
767,6	74,567
768	53,767
768,5	75,367
768,9	51,167
769,3	104,567
769,8	46,767
770,2	30,367
770,6	52,967
771,1	35,767
771,5	71,167
771,9	45,967
772,4	74,567
772,8	68,967
773,2	44,167
773,7	71,767
774,1	61,967
774,5	86,767
775	59,767
775,4	58,567
775,8	48,567
776,3	52,767
776,7	52,167
777,1	44,567
777,6	73,167
778	68,767
778,4	16,967
778,9	57,167
779,3	28,367
779,7	59,967
780,2	58,167
780,6	50,967
781	64,167
781,5	42,767
781,9	52,567
782,3	52,967
782,8	13,967
783,2	45,367
783,6	33,967
784,1	38,567
784,5	57,167
784,9	52,767
785,4	57,967
785,8	64,167
786,2	42,567
786,7	41,367
787,1	59,567
787,5	25,367
788	40,567
788,4	15,167
788,8	64,767
789,3	69,167
789,7	38,367
790,1	49,167
790,6	50,367
791	74,367
791,4	76,567
791,9	20,567
792,3	42,767
792,7	10,567
793,2	5,567
793,6	35,967
794	79,567
794,5	17,767
794,9	45,767
795,3	25,767
795,8	27,767
796,2	40,167
796,6	39,367
797,1	24,967
797,5	78,567
797,9	31,567
798,4	53,367
798,8	14,567
799,2	45,967
799,7	30,567
800,1	57,767
800,5	41,967
801	30,967
801,4	32,767
801,8	-8,633
802,2	44,767
802,7	38,367
803,1	56,767
803,5	59,967
804	41,567
804,4	28,967
804,8	12,167
805,3	40,567
805,7	14,967
806,1	17,767
806,6	12,167
807	40,967
807,4	46,567
807,9	28,967
808,3	64,567
808,7	31,967
809,2	2,767
809,6	47,367
810	47,367
810,4	39,967
810,9	37,167
811,3	23,567
811,7	28,167
812,2	21,767
812,6	56,567
813	36,367
813,5	29,567
813,9	34,767
814,3	44,767
814,8	34,767
815,2	17,567
815,6	36,367
816,1	32,367
816,5	-2,233
816,9	26,767
817,3	25,567
817,8	14,767
818,2	44,367
818,6	36,767
819,1	30,167
819,5	-0,833
819,9	52,767
820,4	26,367
820,8	24,567
821,2	31,367
821,7	8,167
822,1	37,967
822,5	7,367
822,9	39,167
823,4	11,967
823,8	55,567
824,2	-5,233
824,7	4,567
825,1	41,167
825,5	7,967
826	2,367
826,4	27,567
826,8	9,967
827,3	33,167
827,7	26,767
828,1	-0,833
828,5	29,967
829	26,767
829,4	5,367
829,8	36,567
830,3	23,967
830,7	33,367
831,1	18,367
831,6	28,167
832	16,967
832,4	30,367
832,8	5,767
833,3	26,567
833,7	-3,233
834,1	8,767
834,6	11,167
835	9,167
835,4	22,567
835,8	30,567
836,3	25,367
836,7	31,367
837,1	-7,233
837,6	28,367
838	47,567
838,4	22,767
838,9	29,767
839,3	17,967
839,7	13,167
840,1	17,167
840,6	10,367
841	15,567
841,4	8,367
841,9	7,167
842,3	11,967
842,7	32,767
843,1	14,567
843,6	20,967
844	8,767
844,4	32,967
844,9	-0,433
845,3	22,967
845,7	4,967
846,2	3,167
846,6	27,567
847	17,567
847,4	-5,833
847,9	23,967
848,3	1,767
848,7	4,567
849,2	-5,433
849,6	41,967
850	18,567
850,4	41,567
850,9	18,567
851,3	16,367
851,7	5,167
852,2	0,567
852,6	-13,433
853	24,167
853,4	-3,233
853,9	-5,033
854,3	23,767
854,7	31,567
855,2	21,767
855,6	27,567
856	10,167
856,4	16,367
856,9	18,967
857,3	35,767
857,7	-6,033
858,2	35,167
858,6	11,567
859	29,967
859,4	4,367
859,9	-9,233
860,3	-2,233
860,7	9,567
861,1	-8,833
861,6	8,567
862	25,167
862,4	1,167
862,9	21,567
863,3	30,367
863,7	17,967
864,1	25,367
864,6	31,767
865	8,767
865,4	17,567
865,9	18,167
866,3	-0,833
866,7	16,967
867,1	-3,633
867,6	-26,233
868	20,367
868,4	6,567
868,8	-7,233
869,3	0,367
869,7	5,767
870,1	9,367
870,6	-10,033
871	6,167
871,4	20,967
871,8	1,967
872,3	365,167
872,7	-7,233
873,1	6,567
873,5	21,167
874	18,967
874,4	12,167
874,8	9,967
875,3	38,967
875,7	22,567
876,1	20,167
876,5	21,167
877	27,167
877,4	-18,833
877,8	16,967
878,2	17,967
878,7	42,767
879,1	3,167
879,5	17,767
879,9	-2,233
880,4	7,567
880,8	43,967
881,2	28,367
881,7	-8,433
882,1	21,567
882,5	-3,233
882,9	14,967
883,4	7,767
883,8	15,967
884,2	42,967
884,6	-13,633
885,1	6,767
885,5	11,767
885,9	5,367
886,3	-14,833
886,8	4,367
887,2	15,567
887,6	-4,033
888	-8,433
888,5	17,367
888,9	34,767
889,3	11,367
889,8	6,167
890,2	30,967
890,6	-16,233
891	12,167
891,5	-2,833
891,9	29,567
892,3	-12,033
892,7	22,967
893,2	19,567
893,6	-18,633
894	11,567
894,4	10,567
894,9	23,167
895,3	15,367
895,7	22,967
896,1	-7,833
896,6	-2,233
897	26,567
897,4	-17,833
897,8	-30,633
898,3	22,367
898,7	26,567
899,1	26,567
899,5	10,167
900	-4,233
900,4	-12,633
900,8	-8,633
901,2	6,767
901,7	16,967
902,1	21,767
902,5	4,767
902,9	31,967
903,4	-3,633
903,8	-22,633
904,2	4,167
904,6	-12,833
905,1	-9,033
905,5	12,767
905,9	4,767
906,3	20,967
906,8	20,967
907,2	-17,433
907,6	-21,633
908	-12,833
908,5	13,167
908,9	38,967
909,3	29,767
909,7	-2,433
910,2	8,567
910,6	2,367
911	19,767
911,4	-0,633
911,9	21,167
912,3	12,367
912,7	-1,433
913,1	-4,033
913,6	4,167
914	13,767
914,4	6,767
914,8	-2,633
915,3	-0,633
915,7	20,167
916,1	-3,433
916,5	15,367
916,9	-15,233
917,4	-15,033
917,8	-16,833
918,2	24,367
918,6	-0,633
919,1	-10,033
919,5	14,967
919,9	1,567
920,3	8,967
920,8	10,767
921,2	-15,633
921,6	23,167
922	9,567
922,5	16,967
922,9	-1,633
923,3	2,967
923,7	16,767
924,2	5,167
924,6	25,167
925	11,167
925,4	44,167
925,8	19,767
926,3	2,167
926,7	-0,033
927,1	-17,433
927,5	-27,633
928	40,967
928,4	18,767
928,8	28,367
929,2	-6,233
929,7	30,367
930,1	18,967
930,5	-5,833
930,9	32,567
931,3	2,767
931,8	11,367
932,2	0,967
932,6	-3,233
933	-1,033
933,5	12,567
933,9	4,767
934,3	-3,633
934,7	-29,833
935,2	23,367
935,6	-25,233
936	-8,433
936,4	-2,033
936,8	-0,233
937,3	12,367
937,7	10,767
938,1	-10,233
938,5	20,167
939	29,767
939,4	-6,233
939,8	-21,633
940,2	36,967
940,6	-7,033
941,1	7,967
941,5	-25,233
941,9	4,767
942,3	1,767
942,8	11,967
943,2	25,567
943,6	-1,433
944	-18,833
944,4	-3,833
944,9	-2,833
945,3	-0,233
945,7	-11,633
946,1	10,367
946,6	12,967
947	0,567
947,4	3,767
947,8	20,167
948,2	-5,433
948,7	20,567
949,1	-1,233
949,5	6,367
949,9	26,367
950,3	19,767
950,8	5,967
951,2	-19,633
951,6	14,767
952	-0,833
952,5	18,167
952,9	-2,033
953,3	-15,233
953,7	-21,633
954,1	-6,833
954,6	6,567
955	-11,233
955,4	4,167
955,8	12,367
956,2	13,367
956,7	10,967
957,1	15,367
957,5	-1,033
957,9	3,367
958,3	6,767
958,8	7,367
959,2	-22,033
959,6	4,967
960	2,167
960,5	-24,833
960,9	-13,233
961,3	-25,433
961,7	6,167
962,1	-30,033
962,6	18,367
963	-18,633
963,4	-4,233
963,8	12,767
964,2	-18,033
964,7	28,967
965,1	-2,833
965,5	15,167
965,9	1,567
966,3	11,567
966,8	-11,433
967,2	31,367
967,6	17,567
968	-27,233
968,4	16,967
968,9	8,567
969,3	14,367
969,7	7,567
970,1	-4,433
970,5	-17,633
971	-10,633
971,4	44,567
971,8	-20,833
972,2	12,367
972,6	-1,433
973,1	-30,233
973,5	-14,833
973,9	-3,433
974,3	19,367
974,7	9,767
975,2	16,967
975,6	15,567
976	18,567
976,4	-20,233
976,8	-6,233
977,3	2,567
977,7	20,967
978,1	-6,233
978,5	6,967
978,9	7,567
979,4	8,367
979,8	17,367
980,2	-10,033
980,6	2,767
981	5,767
981,5	16,167
981,9	28,767
982,3	-4,633
982,7	31,567
983,1	4,967
983,6	7,567
984	23,367
984,4	-38,633
984,8	-5,033
985,2	6,967
985,6	-13,233
986,1	15,367
986,5	2,967
986,9	27,167
987,3	9,767
987,7	21,367
988,2	26,767
988,6	22,167
989	2,767
989,4	-6,033
989,8	-6,433
990,3	0,167
990,7	11,767
991,1	1,567
991,5	-3,233
991,9	35,167
992,3	-2,433
992,8	-4,233
993,2	-4,233
993,6	15,967
994	-0,833
994,4	-18,433
994,9	19,567
995,3	19,567
995,7	9,567
996,1	-17,833
996,5	8,767
996,9	10,967
997,4	1,567
997,8	-2,833
998,2	3,567
998,6	2,567
999	5,767
999,5	15,967
999,9	1,167
1000,3	24,967
1000,7	-21,033
1001,1	13,367
1001,5	-8,833
1002	-8,233
1002,4	-9,033
1002,8	5,167
1003,2	29,967
1003,6	12,767
1004	2,767
1004,5	-11,833
1004,9	21,167
1005,3	4,967
1005,7	2,367
1006,1	7,767
1006,6	19,567
1007	-4,233
1007,4	0,967
1007,8	22,767
1008,2	12,767
1008,6	13,967
1009,1	5,167
1009,5	29,167
1009,9	-42,833
1010,3	6,967
1010,7	0,367
1011,1	-18,633
1011,6	7,767
1012	6,167
1012,4	18,967
1012,8	12,967
1013,2	34,167
1013,6	-10,033
1014,1	-8,833
1014,5	-11,633
1014,9	-0,833
1015,3	-8,233
1015,7	-5,033
1016,1	-10,233
1016,6	8,767
1017	-3,233
1017,4	-44,433
1017,8	0,367
1018,2	5,567
1018,6	-24,433
1019,1	-2,233
1019,5	9,767
1019,9	15,967
1020,3	42,367
1020,7	-14,233
1021,1	-11,233
1021,6	-10,833
1022	-7,233
1022,4	0,367
1022,8	13,767
1023,2	20,167
1023,6	-20,833
1024,1	-22,033
1024,5	-7,633
1024,9	-8,633
1025,3	-18,233
1025,7	19,367
1026,1	2,567
1026,6	19,767
1027	28,967
1027,4	39,567
1027,8	20,767
1028,2	15,567
1028,6	1,167
1029	7,767
1029,5	-2,033
1029,9	-22,833
1030,3	17,767
1030,7	-15,633
1031,1	12,967
1031,5	6,567
1032	-23,433
1032,4	28,967
1032,8	-15,233
1033,2	21,167
1033,6	6,767
1034	-24,833
1034,4	52,967
1034,9	-2,633
1035,3	-0,433
1035,7	0,367
1036,1	11,767
1036,5	-5,033
1036,9	9,167
1037,4	17,167
1037,8	8,367
1038,2	5,167
1038,6	-4,433
1039	3,767
1039,4	17,167
1039,8	-3,233
1040,3	27,567
1040,7	-2,033
1041,1	-9,633
1041,5	-1,633
1041,9	-6,233
1042,3	20,767
1042,7	2,767
1043,2	-21,233
1043,6	-6,433
1044	23,967
1044,4	-5,233
1044,8	-2,633
1045,2	-26,833
1045,6	17,767
1046,1	-2,033
1046,5	22,367
1046,9	-45,433
1047,3	19,967
1047,7	30,367
1048,1	-8,433
1048,5	-0,433
1049	-10,033
1049,4	1,167
1049,8	8,767
1050,2	12,167
1050,6	-5,833
1051	19,967
1051,4	4,367
1051,9	-11,233
1052,3	-7,233
1052,7	33,367
1053,1	-9,433
1053,5	31,767
1053,9	16,767
1054,3	14,767
1054,8	7,767
1055,2	1,967
1055,6	1,567
1056	-16,233
1056,4	-11,033
1056,8	-0,433
1057,2	-3,833
1057,6	-2,233
1058,1	-24,633
1058,5	20,967
1058,9	20,367
1059,3	-6,233
1059,7	-11,633
1060,1	1,367
1060,5	-8,233
1061	-1,033
1061,4	40,567
1061,8	15,367
1062,2	15,767
1062,6	31,567
1063	7,567
1063,4	-10,633
1063,8	-14,833
1064,3	-17,033
1064,7	5,767
1065,1	-4,633
1065,5	25,767
1065,9	30,367
1066,3	17,567
1066,7	-13,033
1067,1	6,167
1067,6	-6,033
1068	9,767
1068,4	22,967
1068,8	16,767
1069,2	42,567
1069,6	18,567
1070	16,167
1070,4	-5,833
1070,9	33,167
1071,3	16,967
1071,7	3,767
1072,1	-20,033
1072,5	6,767
1072,9	11,767
1073,3	-25,633
1073,7	3,367
1074,2	-13,233
1074,6	-6,433
1075	-5,433
1075,4	-3,433
1075,8	12,167
1076,2	1,567
1076,6	6,767
1077	22,367
1077,5	24,367
1077,9	14,367
1078,3	15,967
1078,7	-12,433
1079,1	12,167
1079,5	9,167
1079,9	3,967
1080,3	-2,833
1080,7	-10,433
1081,2	11,967
1081,6	-4,833
1082	17,967
1082,4	20,967
1082,8	-13,033
1083,2	5,567
1083,6	-17,433
1084	15,167
1084,5	19,567
1084,9	6,767
1085,3	-3,633
1085,7	3,767
1086,1	-17,433
1086,5	-5,633
1086,9	9,567
1087,3	2,967
1087,7	-14,833
1088,2	9,967
1088,6	-7,633
1089	0,167
1089,4	-24,433
1089,8	29,567
1090,2	-15,233
1090,6	7,167
1091	-17,033
1091,4	-17,233
1091,9	-5,633
1092,3	10,367
1092,7	17,767
1093,1	-22,833
1093,5	-3,433
1093,9	0,367
1094,3	-12,633
1094,7	-32,833
1095,1	-3,833
1095,5	10,567
1096	12,367
1096,4	5,367
1096,8	18,767
1097,2	7,367
1097,6	-6,433
1098	-10,433
1098,4	-23,633
1098,8	4,167
1099,2	-11,833
1099,6	-3,233
1100,1	-9,833
1100,5	5,367
1100,9	15,967
1101,3	26,967
1101,7	5,567
1102,1	19,567
1102,5	0,567
1102,9	10,767
1103,3	3,367
1103,7	-15,633
1104,2	10,767
1104,6	-16,433
1105	22,767
1105,4	4,167
1105,8	15,167
1106,2	4,567
1106,6	20,367
1107	-2,633
1107,4	0,967
1107,8	-0,833
1108,3	3,367
