Data from Subt2_00007.txt Node
Date: Wed Aug 02 18:56:04 MSK 2023
User: vat
Spectrometer: MAYP114033
Trigger mode: 0
Integration Time (sec): 7,000000E-1
Scans to average: 5
Electric dark correction enabled: true
Nonlinearity correction enabled: false
Boxcar width: 0
XAxis mode: Wavelengths
Number of Pixels in Spectrum: 2068
>>>>>Begin Spectral Data<<<<<
199,4	3,533
199,9	-1,267
200,4	-1,267
200,8	-0,067
201,3	7,933
201,8	2,133
202,2	2,733
202,7	-15,067
203,2	-1,867
203,6	2,933
204,1	15,333
204,6	-11,267
205	14,733
205,5	13,133
206	12,733
206,4	36,933
206,9	-12,667
207,4	11,533
207,8	12,933
208,3	1,133
208,8	-0,867
209,2	-1,067
209,7	11,733
210,2	2,733
210,6	5,933
211,1	15,733
211,5	-15,067
212	5,333
212,5	6,733
212,9	-0,667
213,4	-3,867
213,9	7,733
214,3	8,933
214,8	8,733
215,3	15,933
215,7	29,133
216,2	-6,467
216,7	1,533
217,1	-2,267
217,6	-13,067
218,1	14,533
218,5	-20,067
219	18,933
219,5	25,733
219,9	17,933
220,4	15,333
220,9	14,333
221,3	7,133
221,8	16,333
222,3	15,733
222,7	3,733
223,2	17,933
223,6	-3,267
224,1	7,333
224,6	18,533
225	13,333
225,5	26,933
226	-0,467
226,4	-0,467
226,9	-20,267
227,4	35,933
227,8	-12,667
228,3	19,533
228,8	18,733
229,2	32,333
229,7	8,933
230,2	17,533
230,6	-2,067
231,1	18,733
231,5	-10,667
232	-19,067
232,5	22,133
232,9	-18,267
233,4	14,533
233,9	7,533
234,3	13,933
234,8	23,733
235,3	15,733
235,7	-6,267
236,2	9,733
236,7	-16,267
237,1	13,733
237,6	-12,667
238,1	-8,667
238,5	32,933
239	18,333
239,4	-10,467
239,9	-12,067
240,4	38,333
240,8	15,333
241,3	0,133
241,8	30,133
242,2	-4,267
242,7	17,333
243,2	5,733
243,6	6,533
244,1	-0,667
244,6	3,133
245	13,733
245,5	-15,667
245,9	31,533
246,4	17,333
246,9	1,133
247,3	18,733
247,8	24,333
248,3	27,933
248,7	3,533
249,2	5,333
249,7	14,133
250,1	25,133
250,6	-21,067
251	14,333
251,5	9,333
252	53,933
252,4	25,733
252,9	17,133
253,4	40,933
253,8	-4,667
254,3	46,333
254,8	-11,667
255,2	21,933
255,7	32,333
256,1	-14,667
256,6	-8,467
257,1	11,533
257,5	4,533
258	6,133
258,5	26,533
258,9	1,533
259,4	55,133
259,9	-2,267
260,3	27,933
260,8	26,733
261,2	0,733
261,7	24,533
262,2	13,733
262,6	24,733
263,1	22,933
263,6	26,733
264	14,333
264,5	-24,867
264,9	-13,467
265,4	14,733
265,9	1,333
266,3	8,333
266,8	26,533
267,3	22,333
267,7	11,333
268,2	12,933
268,7	20,333
269,1	-2,267
269,6	25,933
270	21,133
270,5	9,533
271	2,533
271,4	26,733
271,9	17,933
272,4	-13,667
272,8	-6,467
273,3	-2,667
273,7	1,533
274,2	8,533
274,7	13,933
275,1	38,133
275,6	-9,667
276,1	43,133
276,5	13,933
277	17,133
277,4	6,933
277,9	0,933
278,4	-3,667
278,8	27,133
279,3	8,933
279,8	8,333
280,2	-8,067
280,7	1,533
281,1	-30,467
281,6	14,933
282,1	-1,067
282,5	16,333
283	6,533
283,4	9,533
283,9	3,133
284,4	-9,267
284,8	20,133
285,3	2,333
285,8	18,133
286,2	19,333
286,7	-6,467
287,1	21,733
287,6	-5,067
288,1	-0,467
288,5	31,333
289	31,733
289,5	-4,867
289,9	-6,467
290,4	24,533
290,8	41,333
291,3	17,133
291,8	-3,267
292,2	19,533
292,7	10,133
293,1	-6,067
293,6	26,533
294,1	17,933
294,5	5,333
295	1,133
295,5	18,733
295,9	1,733
296,4	37,533
296,8	11,133
297,3	-6,067
297,8	-1,867
298,2	4,533
298,7	-21,667
299,1	29,133
299,6	1,133
300,1	3,333
300,5	31,733
301	22,133
301,5	6,333
301,9	30,933
302,4	3,733
302,8	8,133
303,3	-12,667
303,8	17,733
304,2	4,933
304,7	50,933
305,1	9,333
305,6	18,933
306,1	2,133
306,5	6,133
307	14,533
307,4	-0,467
307,9	3,133
308,4	17,733
308,8	19,533
309,3	3,533
309,8	2,333
310,2	-10,067
310,7	17,533
311,1	2,933
311,6	27,533
312,1	17,533
312,5	9,333
313	-10,267
313,4	31,133
313,9	1,333
314,4	23,933
314,8	18,933
315,3	9,533
315,7	5,133
316,2	-11,867
316,7	-5,467
317,1	40,733
317,6	27,333
318	47,733
318,5	-22,267
319	7,733
319,4	33,533
319,9	32,333
320,3	1,133
320,8	-20,067
321,3	10,933
321,7	11,133
322,2	5,733
322,6	-2,867
323,1	26,733
323,6	11,933
324	27,533
324,5	53,733
324,9	28,733
325,4	31,533
325,9	2,133
326,3	3,733
326,8	31,133
327,2	-8,267
327,7	30,733
328,2	-0,467
328,6	26,933
329,1	8,733
329,5	-13,667
330	31,333
330,5	2,933
330,9	43,333
331,4	-20,267
331,8	6,133
332,3	21,133
332,8	26,533
333,2	-16,867
333,7	-9,867
334,1	0,733
334,6	5,133
335,1	-9,067
335,5	18,133
336	-13,667
336,4	43,133
336,9	30,333
337,4	28,733
337,8	31,933
338,3	4,333
338,7	23,733
339,2	-21,267
339,7	49,733
340,1	-5,467
340,6	51,533
341	19,533
341,5	-5,867
342	24,533
342,4	10,133
342,9	31,133
343,3	31,533
343,8	31,333
344,2	19,733
344,7	2,733
345,2	22,133
345,6	-6,067
346,1	28,133
346,5	41,133
347	20,933
347,5	12,733
347,9	14,733
348,4	24,733
348,8	32,333
349,3	49,933
349,8	48,533
350,2	48,933
350,7	67,933
351,1	35,933
351,6	76,533
352	72,133
352,5	82,933
353	105,533
353,4	138,733
353,9	187,333
354,3	217,933
354,8	268,533
355,3	279,733
355,7	359,533
356,2	433,933
356,6	516,733
357,1	605,933
357,5	733,933
358	866,133
358,5	973,133
358,9	1134,333
359,4	1307,733
359,8	1520,933
360,3	1768,533
360,8	2023,133
361,2	2305,333
361,7	2633,333
362,1	2963,333
362,6	3360,533
363	3764,133
363,5	4192,133
364	4613,133
364,4	5129,533
364,9	5591,133
365,3	6086,733
365,8	6558,733
366,3	7031,133
366,7	7419,333
367,2	7725,733
367,6	7960,533
368,1	8175,533
368,5	8323,933
369	8454,733
369,5	8453,733
369,9	8320,933
370,4	8142,733
370,8	8003,733
371,3	7724,133
371,7	7437,933
372,2	7056,733
372,7	6754,933
373,1	6409,333
373,6	5963,533
374	5606,133
374,5	5220,333
374,9	4814,933
375,4	4474,733
375,9	4095,333
376,3	3786,733
376,8	3507,133
377,2	3199,733
377,7	2939,533
378,2	2670,333
378,6	2430,733
379,1	2233,533
379,5	2015,133
380	1863,733
380,4	1655,733
380,9	1540,333
381,4	1448,933
381,8	1283,933
382,3	1203,933
382,7	1101,333
383,2	1013,733
383,6	995,333
384,1	898,933
384,6	823,533
385	747,333
385,5	675,733
385,9	668,333
386,4	608,733
386,8	561,133
387,3	519,333
387,7	468,533
388,2	461,933
388,7	398,733
389,1	406,133
389,6	339,933
390	335,533
390,5	312,133
390,9	251,733
391,4	267,333
391,9	251,733
392,3	184,933
392,8	180,333
393,2	181,933
393,7	158,933
394,1	173,133
394,6	178,333
395,1	165,933
395,5	126,533
396	122,733
396,4	145,733
396,9	136,333
397,3	114,733
397,8	93,933
398,2	89,133
398,7	89,133
399,2	88,733
399,6	91,533
400,1	75,733
400,5	62,133
401	73,933
401,4	70,333
401,9	54,133
402,4	45,733
402,8	44,933
403,3	8,133
403,7	49,333
404,2	55,533
404,6	61,733
405,1	63,533
405,5	76,533
406	14,733
406,5	16,533
406,9	54,933
407,4	33,133
407,8	36,133
408,3	6,933
408,7	60,533
409,2	31,933
409,6	22,933
410,1	58,533
410,6	26,533
411	34,333
411,5	49,533
411,9	55,533
412,4	19,733
412,8	51,533
413,3	19,733
413,7	65,733
414,2	31,733
414,7	45,733
415,1	39,133
415,6	45,333
416	43,533
416,5	22,333
416,9	46,933
417,4	44,733
417,8	70,133
418,3	53,333
418,8	30,133
419,2	26,533
419,7	47,733
420,1	61,933
420,6	70,733
421	35,533
421,5	60,533
421,9	57,933
422,4	56,533
422,8	72,333
423,3	19,133
423,8	71,733
424,2	55,933
424,7	70,133
425,1	77,533
425,6	78,733
426	70,533
426,5	59,133
426,9	62,133
427,4	57,133
427,9	87,133
428,3	70,933
428,8	75,333
429,2	59,933
429,7	86,733
430,1	81,933
430,6	99,933
431	116,533
431,5	104,533
431,9	72,733
432,4	126,933
432,8	93,533
433,3	99,933
433,8	137,933
434,2	117,333
434,7	110,133
435,1	110,733
435,6	100,333
436	105,933
436,5	162,333
436,9	120,133
437,4	123,733
437,8	164,733
438,3	162,133
438,8	166,333
439,2	155,133
439,7	175,933
440,1	155,733
440,6	220,733
441	187,733
441,5	191,533
441,9	229,933
442,4	159,933
442,8	224,533
443,3	225,733
443,7	242,733
444,2	233,933
444,7	274,533
445,1	279,733
445,6	259,133
446	271,933
446,5	292,333
446,9	300,133
447,4	291,133
447,8	345,533
448,3	345,933
448,7	346,733
449,2	374,533
449,6	362,733
450,1	400,933
450,6	388,933
451	419,133
451,5	429,333
451,9	430,333
452,4	468,733
452,8	514,733
453,3	502,333
453,7	503,933
454,2	501,133
454,6	545,533
455,1	547,133
455,5	599,933
456	563,733
456,4	584,733
456,9	622,133
457,3	653,133
457,8	648,933
458,3	680,933
458,7	731,133
459,2	725,533
459,6	767,933
460,1	769,333
460,5	770,333
461	822,533
461,4	820,733
461,9	847,133
462,3	885,333
462,8	852,533
463,2	889,933
463,7	901,333
464,1	968,133
464,6	928,733
465	1005,533
465,5	1007,933
466	1031,533
466,4	1050,933
466,9	1053,733
467,3	1107,933
467,8	1132,333
468,2	1134,933
468,7	1146,533
469,1	1191,933
469,6	1173,333
470	1249,933
470,5	1242,133
470,9	1268,533
471,4	1304,133
471,8	1291,333
472,3	1326,933
472,7	1332,733
473,2	1373,133
473,6	1395,733
474,1	1367,533
474,5	1471,333
475	1465,133
475,4	1474,133
475,9	1463,133
476,4	1496,933
476,8	1526,933
477,3	1510,733
477,7	1542,933
478,2	1536,733
478,6	1538,333
479,1	1572,133
479,5	1577,133
480	1617,133
480,4	1629,133
480,9	1651,733
481,3	1609,933
481,8	1667,133
482,2	1686,533
482,7	1652,533
483,1	1707,933
483,6	1659,333
484	1708,733
484,5	1744,733
484,9	1708,333
485,4	1741,533
485,8	1730,133
486,3	1704,133
486,7	1744,733
487,2	1740,133
487,6	1748,933
488,1	1779,933
488,5	1773,733
489	1770,533
489,4	1758,933
489,9	1782,733
490,4	1760,733
490,8	1794,133
491,3	1770,333
491,7	1757,533
492,2	1794,933
492,6	1811,933
493,1	1774,333
493,5	1806,133
494	1782,333
494,4	1785,733
494,9	1786,133
495,3	1810,333
495,8	1784,133
496,2	1776,533
496,7	1759,333
497,1	1777,133
497,6	1764,733
498	1779,533
498,5	1761,733
498,9	1785,733
499,4	1746,133
499,8	1714,933
500,3	1744,333
500,7	1790,733
501,2	1753,133
501,6	1720,133
502,1	1699,733
502,5	1731,533
503	1723,533
503,4	1714,133
503,9	1731,133
504,3	1681,533
504,8	1716,733
505,2	1672,933
505,7	1692,933
506,1	1653,333
506,6	1643,733
507	1644,733
507,5	1615,733
507,9	1666,533
508,4	1662,933
508,8	1629,333
509,3	1625,933
509,7	1605,133
510,2	1610,133
510,6	1603,933
511,1	1593,533
511,5	1558,733
512	1574,733
512,4	1570,333
512,9	1534,733
513,3	1533,733
513,8	1499,733
514,2	1482,333
514,7	1496,333
515,1	1489,333
515,6	1498,333
516	1472,333
516,5	1468,333
516,9	1433,933
517,4	1443,733
517,8	1442,533
518,3	1439,533
518,7	1421,533
519,2	1400,733
519,6	1383,133
520,1	1376,933
520,5	1360,533
521	1335,333
521,4	1336,333
521,9	1311,133
522,3	1305,733
522,8	1309,533
523,2	1299,533
523,7	1277,133
524,1	1256,133
524,6	1259,333
525	1233,133
525,5	1239,733
525,9	1265,333
526,4	1224,133
526,8	1233,133
527,3	1185,733
527,7	1215,333
528,2	1209,733
528,6	1156,333
529,1	1142,133
529,5	1191,933
530	1180,933
530,4	1146,933
530,9	1107,133
531,3	1085,333
531,8	1121,733
532,2	1080,333
532,6	1071,933
533,1	1081,933
533,5	1095,933
534	1071,933
534,4	1073,533
534,9	1014,333
535,3	1069,333
535,8	1019,733
536,2	1040,933
536,7	1005,733
537,1	1002,533
537,6	967,933
538	1012,133
538,5	1017,933
538,9	972,333
539,4	969,533
539,8	1005,533
540,3	930,133
540,7	924,733
541,2	942,333
541,6	923,733
542,1	908,733
542,5	873,533
543	905,133
543,4	883,133
543,9	938,933
544,3	882,733
544,8	909,533
545,2	865,733
545,7	851,533
546,1	818,133
546,5	868,533
547	832,133
547,4	855,533
547,9	815,933
548,3	754,333
548,8	834,533
549,2	817,733
549,7	810,333
550,1	794,733
550,6	804,933
551	765,733
551,5	775,333
551,9	755,133
552,4	749,133
552,8	732,333
553,3	772,133
553,7	748,733
554,2	716,933
554,6	741,733
555,1	731,533
555,5	721,533
555,9	679,933
556,4	708,333
556,8	699,933
557,3	712,733
557,7	678,933
558,2	679,933
558,6	666,733
559,1	678,933
559,5	661,133
560	692,933
560,4	661,733
560,9	637,733
561,3	675,133
561,8	662,933
562,2	639,933
562,7	647,533
563,1	634,933
563,6	635,133
564	635,733
564,4	594,133
564,9	640,733
565,3	619,933
565,8	608,733
566,2	576,333
566,7	613,333
567,1	598,733
567,6	592,333
568	595,133
568,5	566,533
568,9	575,533
569,4	568,933
569,8	584,333
570,3	572,533
570,7	551,933
571,1	543,733
571,6	557,933
572	560,733
572,5	547,933
572,9	569,933
573,4	556,933
573,8	534,933
574,3	529,733
574,7	561,733
575,2	499,933
575,6	519,533
576,1	553,733
576,5	505,333
576,9	522,133
577,4	482,533
577,8	513,333
578,3	509,333
578,7	521,733
579,2	509,333
579,6	483,133
580,1	500,133
580,5	496,133
581	494,133
581,4	468,533
581,9	454,733
582,3	514,133
582,7	483,533
583,2	457,133
583,6	484,733
584,1	452,533
584,5	457,133
585	469,533
585,4	466,533
585,9	435,133
586,3	425,933
586,8	445,133
587,2	439,333
587,6	459,933
588,1	415,933
588,5	451,133
589	418,133
589,4	434,533
589,9	404,933
590,3	424,933
590,8	412,133
591,2	401,733
591,7	427,733
592,1	400,333
592,5	434,533
593	380,333
593,4	406,333
593,9	404,933
594,3	390,533
594,8	391,733
595,2	409,333
595,7	394,533
596,1	375,733
596,6	369,933
597	362,133
597,4	391,933
597,9	377,333
598,3	377,133
598,8	360,333
599,2	381,733
599,7	353,133
600,1	343,333
600,6	370,333
601	335,733
601,4	359,333
601,9	351,733
602,3	341,133
602,8	359,533
603,2	323,733
603,7	361,533
604,1	372,533
604,6	349,333
605	362,333
605,4	343,133
605,9	327,533
606,3	318,333
606,8	353,133
607,2	319,733
607,7	322,133
608,1	347,733
608,6	304,133
609	344,333
609,4	331,933
609,9	329,933
610,3	338,333
610,8	321,333
611,2	309,933
611,7	323,133
612,1	314,333
612,6	316,133
613	307,933
613,4	293,333
613,9	285,533
614,3	302,533
614,8	304,933
615,2	314,733
615,7	284,733
616,1	324,733
616,6	294,333
617	315,333
617,4	308,333
617,9	285,333
618,3	293,733
618,8	261,533
619,2	296,733
619,7	317,533
620,1	313,533
620,5	255,733
621	266,533
621,4	288,733
621,9	266,333
622,3	251,333
622,8	295,733
623,2	253,933
623,6	260,933
624,1	265,533
624,5	272,533
625	294,933
625,4	251,333
625,9	275,133
626,3	261,533
626,8	271,933
627,2	298,533
627,6	256,933
628,1	259,133
628,5	278,933
629	248,133
629,4	230,133
629,9	249,533
630,3	263,333
630,7	234,333
631,2	234,733
631,6	267,333
632,1	245,333
632,5	272,533
633	234,933
633,4	245,333
633,8	236,733
634,3	235,133
634,7	228,333
635,2	236,133
635,6	245,733
636,1	225,133
636,5	270,533
636,9	220,933
637,4	227,533
637,8	232,333
638,3	204,733
638,7	215,533
639,2	226,533
639,6	230,133
640	229,133
640,5	221,333
640,9	201,533
641,4	207,733
641,8	232,933
642,2	201,133
642,7	179,533
643,1	201,133
643,6	213,933
644	195,133
644,5	181,733
644,9	197,533
645,3	228,333
645,8	227,333
646,2	196,933
646,7	204,933
647,1	209,733
647,6	218,133
648	201,133
648,4	216,333
648,9	201,133
649,3	198,133
649,8	194,933
650,2	208,733
650,6	189,333
651,1	191,533
651,5	207,733
652	170,533
652,4	177,133
652,9	173,133
653,3	178,333
653,7	182,533
654,2	190,133
654,6	180,733
655,1	176,333
655,5	214,333
655,9	183,933
656,4	186,533
656,8	195,733
657,3	192,733
657,7	198,933
658,2	202,133
658,6	194,933
659	182,333
659,5	153,733
659,9	157,933
660,4	194,733
660,8	193,333
661,2	163,533
661,7	186,133
662,1	181,533
662,6	172,333
663	172,333
663,4	148,933
663,9	144,733
664,3	173,533
664,8	123,933
665,2	156,933
665,6	153,733
666,1	160,133
666,5	114,133
667	150,533
667,4	163,533
667,9	148,533
668,3	169,333
668,7	168,133
669,2	157,933
669,6	148,133
670,1	139,733
670,5	182,533
670,9	144,133
671,4	145,333
671,8	172,133
672,3	184,933
672,7	161,333
673,1	192,333
673,6	148,133
674	166,333
674,5	138,533
674,9	137,533
675,3	141,733
675,8	164,533
676,2	181,333
676,7	154,333
677,1	142,733
677,5	134,133
678	158,133
678,4	142,133
678,9	167,333
679,3	131,333
679,7	183,333
680,2	139,733
680,6	162,933
681,1	155,733
681,5	129,133
681,9	155,933
682,4	156,733
682,8	138,533
683,3	155,933
683,7	119,133
684,1	160,933
684,6	139,533
685	134,933
685,5	135,333
685,9	151,333
686,3	117,333
686,8	138,933
687,2	148,733
687,7	116,133
688,1	126,933
688,5	125,733
689	120,333
689,4	157,333
689,9	143,533
690,3	141,533
690,7	142,733
691,2	140,933
691,6	145,133
692	122,133
692,5	149,333
692,9	135,533
693,4	150,933
693,8	121,133
694,2	121,333
694,7	141,533
695,1	122,933
695,6	111,933
696	127,933
696,4	134,933
696,9	118,333
697,3	144,133
697,8	125,333
698,2	119,133
698,6	100,333
699,1	136,533
699,5	115,933
699,9	139,933
700,4	125,333
700,8	96,133
701,3	137,333
701,7	140,933
702,1	108,533
702,6	136,133
703	140,133
703,5	105,133
703,9	99,533
704,3	108,133
704,8	113,733
705,2	116,333
705,6	125,133
706,1	110,133
706,5	103,733
707	97,533
707,4	115,933
707,8	96,533
708,3	119,733
708,7	102,933
709,2	150,533
709,6	97,733
710	114,133
710,5	103,533
710,9	113,133
711,3	117,333
711,8	128,533
712,2	109,133
712,7	90,733
713,1	96,133
713,5	127,333
714	124,733
714,4	126,933
714,8	101,333
715,3	103,133
715,7	98,333
716,2	89,533
716,6	75,133
717	133,533
717,5	106,133
717,9	96,133
718,3	106,133
718,8	72,333
719,2	90,733
719,7	124,733
720,1	74,133
720,5	100,333
721	100,533
721,4	106,533
721,8	104,733
722,3	101,733
722,7	108,133
723,2	110,533
723,6	109,133
724	98,133
724,5	88,133
724,9	114,333
725,3	100,733
725,8	101,533
726,2	123,333
726,7	81,133
727,1	94,533
727,5	130,333
728	64,333
728,4	71,533
728,8	111,933
729,3	108,133
729,7	70,733
730,1	85,133
730,6	79,733
731	102,933
731,5	68,733
731,9	62,933
732,3	90,333
732,8	99,333
733,2	95,933
733,6	75,933
734,1	90,933
734,5	106,733
734,9	79,733
735,4	76,333
735,8	99,933
736,3	80,333
736,7	59,933
737,1	97,533
737,6	83,733
738	122,333
738,4	79,533
738,9	94,333
739,3	95,733
739,7	71,533
740,2	64,533
740,6	84,533
741,1	60,533
741,5	87,333
741,9	58,933
742,4	102,133
742,8	111,733
743,2	83,533
743,7	70,933
744,1	78,533
744,5	80,933
745	58,333
745,4	74,133
745,8	76,933
746,3	121,333
746,7	82,133
747,2	67,133
747,6	99,533
748	68,533
748,5	76,733
748,9	76,733
749,3	64,533
749,8	82,533
750,2	103,333
750,6	107,133
751,1	67,733
751,5	115,133
751,9	70,733
752,4	63,733
752,8	91,133
753,3	81,733
753,7	68,533
754,1	99,133
754,6	74,733
755	48,533
755,4	83,333
755,9	73,733
756,3	52,933
756,7	86,933
757,2	88,333
757,6	63,333
758	68,133
758,5	87,733
758,9	81,733
759,3	99,933
759,8	69,533
760,2	80,333
760,6	46,333
761,1	81,733
761,5	75,733
761,9	61,733
762,4	67,533
762,8	106,133
763,3	64,933
763,7	74,333
764,1	70,333
764,6	48,333
765	75,933
765,4	70,533
765,9	80,533
766,3	89,133
766,7	76,933
767,2	61,333
767,6	75,333
768	94,533
768,5	87,733
768,9	51,333
769,3	82,133
769,8	47,533
770,2	58,933
770,6	63,933
771,1	59,733
771,5	82,133
771,9	54,133
772,4	76,333
772,8	63,333
773,2	61,933
773,7	79,533
774,1	81,733
774,5	77,133
775	100,733
775,4	70,933
775,8	68,933
776,3	70,133
776,7	54,933
777,1	77,333
777,6	76,933
778	85,333
778,4	64,533
778,9	61,733
779,3	41,933
779,7	82,533
780,2	62,733
780,6	18,733
781	69,733
781,5	40,333
781,9	67,733
782,3	59,733
782,8	38,733
783,2	52,533
783,6	37,133
784,1	60,733
784,5	55,333
784,9	61,133
785,4	64,133
785,8	77,333
786,2	39,533
786,7	52,933
787,1	69,533
787,5	38,933
788	53,133
788,4	48,133
788,8	58,733
789,3	64,533
789,7	63,133
790,1	86,133
790,6	41,333
791	55,333
791,4	60,733
791,9	16,333
792,3	54,733
792,7	57,333
793,2	21,733
793,6	74,333
794	67,533
794,5	40,933
794,9	50,333
795,3	54,733
795,8	19,533
796,2	27,533
796,6	36,733
797,1	27,733
797,5	88,933
797,9	31,733
798,4	44,133
798,8	38,133
799,2	57,733
799,7	58,333
800,1	61,733
800,5	52,933
801	26,933
801,4	45,533
801,8	13,933
802,2	33,333
802,7	58,333
803,1	68,133
803,5	37,933
804	63,933
804,4	36,533
804,8	31,333
805,3	44,733
805,7	23,933
806,1	25,533
806,6	23,733
807	54,133
807,4	45,733
807,9	23,933
808,3	82,933
808,7	28,533
809,2	20,733
809,6	37,733
810	65,733
810,4	57,733
810,9	60,733
811,3	69,533
811,7	39,533
812,2	49,333
812,6	52,133
813	30,733
813,5	58,133
813,9	67,333
814,3	45,533
814,8	29,333
815,2	23,933
815,6	57,333
816,1	28,133
816,5	37,333
816,9	56,733
817,3	34,133
817,8	37,533
818,2	41,133
818,6	44,133
819,1	32,933
819,5	28,133
819,9	57,533
820,4	31,933
820,8	40,133
821,2	48,533
821,7	15,533
822,1	33,533
822,5	20,933
822,9	49,133
823,4	14,733
823,8	50,533
824,2	27,333
824,7	10,533
825,1	8,333
825,5	14,133
826	19,533
826,4	8,933
826,8	47,933
827,3	5,933
827,7	19,733
828,1	2,333
828,5	40,133
829	48,333
829,4	8,133
829,8	28,333
830,3	34,333
830,7	32,533
831,1	27,733
831,6	26,933
832	16,533
832,4	39,733
832,8	21,933
833,3	26,733
833,7	19,733
834,1	0,133
834,6	23,733
835	19,933
835,4	31,733
835,8	64,533
836,3	55,133
836,7	36,333
837,1	30,133
837,6	42,933
838	55,533
838,4	40,733
838,9	51,333
839,3	34,733
839,7	12,933
840,1	39,333
840,6	34,533
841	10,733
841,4	35,933
841,9	36,533
842,3	30,933
842,7	49,333
843,1	21,733
843,6	28,933
844	5,933
844,4	31,733
844,9	27,133
845,3	25,133
845,7	16,933
846,2	45,333
846,6	20,133
847	10,733
847,4	22,333
847,9	12,933
848,3	3,933
848,7	26,333
849,2	13,133
849,6	16,933
850	36,133
850,4	26,133
850,9	55,133
851,3	30,733
851,7	21,533
852,2	-2,867
852,6	-20,667
853	62,733
853,4	11,933
853,9	26,733
854,3	12,133
854,7	40,133
855,2	43,133
855,6	28,933
856	-7,667
856,4	6,333
856,9	16,333
857,3	35,533
857,7	-20,067
858,2	63,733
858,6	12,533
859	48,533
859,4	28,333
859,9	-19,067
860,3	-0,867
860,7	-12,467
861,1	-3,267
861,6	6,133
862	17,733
862,4	-9,267
862,9	11,133
863,3	25,333
863,7	3,933
864,1	21,533
864,6	30,533
865	29,533
865,4	29,333
865,9	3,133
866,3	-5,867
866,7	20,933
867,1	3,333
867,6	6,733
868	12,533
868,4	41,333
868,8	13,333
869,3	10,933
869,7	5,933
870,1	28,133
870,6	-12,867
871	-10,467
871,4	-0,467
871,8	15,733
872,3	5,733
872,7	26,533
873,1	18,333
873,5	20,333
874	32,133
874,4	22,533
874,8	-2,867
875,3	36,733
875,7	0,333
876,1	21,533
876,5	10,333
877	24,333
877,4	-16,267
877,8	23,933
878,2	28,133
878,7	16,533
879,1	41,533
879,5	14,933
879,9	21,333
880,4	33,133
880,8	51,133
881,2	36,133
881,7	20,733
882,1	12,533
882,5	16,533
882,9	35,733
883,4	8,933
883,8	27,133
884,2	35,533
884,6	-8,867
885,1	5,733
885,5	25,733
885,9	22,533
886,3	-15,867
886,8	37,133
887,2	18,333
887,6	-4,667
888	-10,667
888,5	44,933
888,9	20,333
889,3	-2,467
889,8	22,333
890,2	16,133
890,6	-11,267
891	-13,267
891,5	-8,867
891,9	28,933
892,3	22,733
892,7	18,133
893,2	20,333
893,6	27,333
894	12,533
894,4	6,533
894,9	21,333
895,3	29,933
895,7	-9,267
896,1	-10,067
896,6	16,933
897	26,533
897,4	-11,667
897,8	2,933
898,3	21,533
898,7	29,933
899,1	24,533
899,5	15,133
900	33,533
900,4	18,933
900,8	-3,467
901,2	-10,667
901,7	22,933
902,1	16,733
902,5	15,133
902,9	54,533
903,4	1,533
903,8	-11,867
904,2	10,533
904,6	2,133
905,1	14,933
905,5	19,933
905,9	52,133
906,3	9,333
906,8	19,933
907,2	4,133
907,6	-0,267
908	20,933
908,5	3,133
908,9	30,133
909,3	22,933
909,7	9,533
910,2	9,133
910,6	25,333
911	10,133
911,4	6,733
911,9	35,333
912,3	24,533
912,7	14,533
913,1	18,733
913,6	12,333
914	-5,867
914,4	12,533
914,8	13,333
915,3	2,133
915,7	43,133
916,1	5,333
916,5	27,133
916,9	-3,867
917,4	8,333
917,8	-10,267
918,2	5,133
918,6	-13,067
919,1	12,333
919,5	20,733
919,9	3,733
920,3	42,133
920,8	20,533
921,2	-4,667
921,6	15,133
922	9,133
922,5	29,733
922,9	-21,267
923,3	5,333
923,7	22,733
924,2	10,533
924,6	20,333
925	8,933
925,4	30,133
925,8	6,333
926,3	8,933
926,7	1,533
927,1	28,733
927,5	-14,467
928	30,333
928,4	12,533
928,8	12,733
929,2	5,133
929,7	36,533
930,1	0,733
930,5	18,133
930,9	11,533
931,3	24,133
931,8	6,933
932,2	31,733
932,6	-11,867
933	6,733
933,5	3,733
933,9	36,333
934,3	14,733
934,7	-6,067
935,2	18,933
935,6	-8,667
936	3,133
936,4	1,333
936,8	7,133
937,3	17,533
937,7	37,333
938,1	-3,867
938,5	21,733
939	54,733
939,4	10,133
939,8	19,133
940,2	43,933
940,6	8,733
941,1	16,133
941,5	3,133
941,9	5,733
942,3	23,933
942,8	14,133
943,2	11,333
943,6	20,533
944	7,533
944,4	-2,867
944,9	1,333
945,3	-10,267
945,7	-5,267
946,1	-9,267
946,6	26,533
947	-0,267
947,4	11,133
947,8	17,933
948,2	20,733
948,7	24,133
949,1	-29,067
949,5	23,533
949,9	17,133
950,3	22,333
950,8	-4,267
951,2	11,533
951,6	24,733
952	26,733
952,5	-1,867
952,9	7,333
953,3	8,133
953,7	-7,867
954,1	3,133
954,6	-0,467
955	17,133
955,4	19,333
955,8	34,933
956,2	19,133
956,7	13,133
957,1	15,533
957,5	23,733
957,9	9,733
958,3	37,333
958,8	0,733
959,2	19,533
959,6	13,733
960	18,933
960,5	-10,467
960,9	-9,467
961,3	4,533
961,7	8,933
962,1	7,933
962,6	-2,267
963	2,133
963,4	-6,667
963,8	15,133
964,2	9,933
964,7	7,733
965,1	-8,267
965,5	13,933
965,9	17,533
966,3	31,533
966,8	1,933
967,2	18,733
967,6	12,733
968	4,333
968,4	4,333
968,9	16,933
969,3	25,533
969,7	-10,067
970,1	-0,267
970,5	0,533
971	-7,667
971,4	36,133
971,8	-1,267
972,2	30,733
972,6	45,133
973,1	-15,867
973,5	7,333
973,9	21,133
974,3	15,533
974,7	4,533
975,2	15,533
975,6	15,133
976	-7,867
976,4	17,533
976,8	24,133
977,3	30,733
977,7	-5,067
978,1	-0,467
978,5	19,333
978,9	39,933
979,4	47,133
979,8	-9,867
980,2	-8,667
980,6	6,133
981	9,933
981,5	-2,867
981,9	28,933
982,3	23,133
982,7	35,533
983,1	36,933
983,6	13,733
984	39,733
984,4	-10,067
984,8	9,333
985,2	24,533
985,6	9,333
986,1	31,333
986,5	2,533
986,9	17,333
987,3	-17,067
987,7	15,533
988,2	27,933
988,6	12,933
989	3,533
989,4	6,533
989,8	0,933
990,3	2,133
990,7	15,533
991,1	11,333
991,5	-1,667
991,9	23,333
992,3	-6,267
992,8	14,133
993,2	11,533
993,6	27,133
994	9,733
994,4	8,133
994,9	-0,467
995,3	5,133
995,7	9,533
996,1	7,333
996,5	9,533
996,9	-5,867
997,4	20,333
997,8	11,733
998,2	-7,267
998,6	30,733
999	-8,467
999,5	19,333
999,9	-2,467
1000,3	18,133
1000,7	-2,067
1001,1	22,133
1001,5	-6,067
1002	-3,667
1002,4	25,933
1002,8	35,933
1003,2	16,333
1003,6	18,533
1004	21,733
1004,5	3,733
1004,9	29,733
1005,3	2,333
1005,7	16,533
1006,1	1,733
1006,6	19,333
1007	-7,867
1007,4	29,133
1007,8	2,733
1008,2	9,333
1008,6	-9,467
1009,1	-23,667
1009,5	4,733
1009,9	-12,267
1010,3	-9,267
1010,7	-2,067
1011,1	-14,467
1011,6	10,733
1012	13,133
1012,4	7,333
1012,8	9,533
1013,2	47,333
1013,6	14,333
1014,1	7,933
1014,5	-1,267
1014,9	13,933
1015,3	6,133
1015,7	5,333
1016,1	-2,867
1016,6	6,333
1017	33,533
1017,4	5,733
1017,8	6,733
1018,2	2,533
1018,6	0,733
1019,1	26,733
1019,5	31,533
1019,9	28,533
1020,3	37,733
1020,7	19,133
1021,1	-15,267
1021,6	5,333
1022	-6,867
1022,4	15,133
1022,8	9,533
1023,2	15,133
1023,6	1,133
1024,1	-21,667
1024,5	-4,867
1024,9	1,533
1025,3	-31,267
1025,7	24,533
1026,1	-6,467
1026,6	25,133
1027	26,333
1027,4	21,933
1027,8	31,933
1028,2	12,133
1028,6	33,133
1029	13,533
1029,5	2,733
1029,9	1,933
1030,3	17,133
1030,7	10,933
1031,1	12,933
1031,5	-12,667
1032	2,733
1032,4	28,333
1032,8	-10,067
1033,2	23,133
1033,6	31,133
1034	-3,067
1034,4	12,533
1034,9	-6,267
1035,3	15,933
1035,7	-10,267
1036,1	-8,067
1036,5	5,133
1036,9	28,533
1037,4	-6,067
1037,8	1,733
1038,2	4,133
1038,6	-5,067
1039	9,733
1039,4	18,133
1039,8	35,333
1040,3	22,733
1040,7	5,733
1041,1	0,133
1041,5	17,533
1041,9	12,733
1042,3	20,133
1042,7	37,133
1043,2	-25,667
1043,6	2,533
1044	-9,067
1044,4	23,533
1044,8	-25,867
1045,2	-6,867
1045,6	4,333
1046,1	8,533
1046,5	-0,667
1046,9	-3,867
1047,3	21,333
1047,7	24,933
1048,1	25,933
1048,5	13,133
1049	-13,867
1049,4	21,333
1049,8	8,133
1050,2	-2,667
1050,6	-14,067
1051	28,533
1051,4	14,533
1051,9	-14,467
1052,3	12,133
1052,7	27,333
1053,1	-3,267
1053,5	9,933
1053,9	22,733
1054,3	0,933
1054,8	23,333
1055,2	16,733
1055,6	-7,867
1056	-10,267
1056,4	23,533
1056,8	-18,867
1057,2	26,733
1057,6	4,333
1058,1	-16,867
1058,5	44,133
1058,9	32,133
1059,3	12,333
1059,7	10,733
1060,1	19,933
1060,5	2,333
1061	15,133
1061,4	36,133
1061,8	15,133
1062,2	17,733
1062,6	27,933
1063	25,333
1063,4	3,933
1063,8	-2,067
1064,3	21,533
1064,7	32,533
1065,1	-18,467
1065,5	44,933
1065,9	-3,667
1066,3	18,333
1066,7	2,733
1067,1	7,933
1067,6	-1,467
1068	13,133
1068,4	33,533
1068,8	1,533
1069,2	25,933
1069,6	0,733
1070	26,133
1070,4	10,133
1070,9	21,933
1071,3	32,733
1071,7	18,333
1072,1	17,933
1072,5	7,733
1072,9	0,933
1073,3	-7,867
1073,7	3,533
1074,2	6,333
1074,6	2,133
1075	-15,467
1075,4	8,133
1075,8	47,533
1076,2	18,333
1076,6	-0,667
1077	11,333
1077,5	19,933
1077,9	37,733
1078,3	13,733
1078,7	19,333
1079,1	41,533
1079,5	31,933
1079,9	0,333
1080,3	6,733
1080,7	27,733
1081,2	19,133
1081,6	19,333
1082	0,733
1082,4	22,333
1082,8	10,133
1083,2	-3,067
1083,6	10,133
1084	20,133
1084,5	27,533
1084,9	5,333
1085,3	12,333
1085,7	29,333
1086,1	-33,467
1086,5	11,333
1086,9	24,733
1087,3	3,333
1087,7	-1,467
1088,2	10,133
1088,6	-10,867
1089	18,533
1089,4	-16,467
1089,8	22,333
1090,2	-2,867
1090,6	12,533
1091	-0,667
1091,4	-25,867
1091,9	10,533
1092,3	42,333
1092,7	40,933
1093,1	4,733
1093,5	-7,067
1093,9	16,133
1094,3	-5,267
1094,7	-13,067
1095,1	11,733
1095,5	10,333
1096	6,733
1096,4	22,533
1096,8	9,133
1097,2	-3,667
1097,6	3,933
1098	-7,267
1098,4	-4,867
1098,8	-10,267
1099,2	-6,667
1099,6	-16,467
1100,1	-10,267
1100,5	-2,267
1100,9	26,133
1101,3	25,333
1101,7	-1,867
1102,1	-6,467
1102,5	36,533
1102,9	2,733
1103,3	15,133
1103,7	5,933
1104,2	-1,067
1104,6	-12,267
1105	9,933
1105,4	25,933
1105,8	14,933
1106,2	-1,067
1106,6	4,133
1107	-0,067
1107,4	-1,067
1107,8	-1,267
1108,3	3,733
