Data from Subt2_00006.txt Node
Date: Wed Aug 02 18:54:30 MSK 2023
User: vat
Spectrometer: MAYP114033
Trigger mode: 0
Integration Time (sec): 7,000000E-1
Scans to average: 5
Electric dark correction enabled: true
Nonlinearity correction enabled: false
Boxcar width: 0
XAxis mode: Wavelengths
Number of Pixels in Spectrum: 2068
>>>>>Begin Spectral Data<<<<<
199,4	-2
199,9	-0,2
200,4	-0,8
200,8	-0,8
201,3	11,2
201,8	28,2
202,2	-13,8
202,7	-16,6
203,2	7,2
203,6	-5
204,1	0,4
204,6	4,4
205	26,8
205,5	7
206	-8,6
206,4	32,6
206,9	21,6
207,4	2,2
207,8	33,8
208,3	4,6
208,8	19,2
209,2	1,6
209,7	28,4
210,2	-10,2
210,6	6,8
211,1	7
211,5	-11
212	21,2
212,5	-17
212,9	4
213,4	2,8
213,9	13,2
214,3	8,2
214,8	24,8
215,3	-5
215,7	4,6
216,2	-2,8
216,7	-0,6
217,1	10,2
217,6	4
218,1	6
218,5	-5,4
219	24,2
219,5	22,8
219,9	21,2
220,4	-11,4
220,9	3,4
221,3	-19,4
221,8	5,6
222,3	10,2
222,7	-12,6
223,2	15,6
223,6	15,8
224,1	7,2
224,6	15,6
225	8
225,5	49,4
226	2
226,4	23,4
226,9	11,4
227,4	31
227,8	-5,4
228,3	-5,6
228,8	13,2
229,2	22,2
229,7	18,2
230,2	7,8
230,6	29,6
231,1	33,6
231,5	2,8
232	31
232,5	25,2
232,9	-15,4
233,4	12
233,9	16,6
234,3	14,6
234,8	24,2
235,3	11,2
235,7	-5,4
236,2	14,6
236,7	-16,2
237,1	15,4
237,6	11,8
238,1	-2,6
238,5	18
239	24,6
239,4	-17,8
239,9	-21,6
240,4	39
240,8	27,8
241,3	6,2
241,8	22,2
242,2	4,2
242,7	9,4
243,2	9,4
243,6	3,8
244,1	-2,6
244,6	22,8
245	17,8
245,5	-27,2
245,9	12,4
246,4	7,4
246,9	-6
247,3	17,2
247,8	30,6
248,3	36,6
248,7	-6,4
249,2	16,6
249,7	-10,2
250,1	4
250,6	-11,4
251	32,8
251,5	23,8
252	34,4
252,4	14,2
252,9	8,4
253,4	36,4
253,8	4
254,3	38
254,8	-17,4
255,2	20,6
255,7	43
256,1	-17,8
256,6	9,6
257,1	3,8
257,5	-5,8
258	19,6
258,5	15
258,9	22
259,4	49,2
259,9	-20,2
260,3	38,8
260,8	1,8
261,2	-2,2
261,7	18,6
262,2	39,4
262,6	19,4
263,1	22
263,6	2,8
264	14,6
264,5	-24,8
264,9	9,4
265,4	-6,8
265,9	-6,6
266,3	19
266,8	31,6
267,3	14,8
267,7	0,4
268,2	7,2
268,7	13,2
269,1	12,4
269,6	21
270	15,6
270,5	-14,4
271	1
271,4	20
271,9	-5,6
272,4	21,4
272,8	-1,6
273,3	-6,2
273,7	11
274,2	0,6
274,7	11,4
275,1	17,6
275,6	-8,4
276,1	41
276,5	-4,8
277	3,2
277,4	10,6
277,9	20,6
278,4	14
278,8	7,4
279,3	-3
279,8	3,4
280,2	-14,4
280,7	-32,8
281,1	5
281,6	23,2
282,1	0,4
282,5	7,8
283	25,2
283,4	2
283,9	2
284,4	6,6
284,8	3,4
285,3	7,4
285,8	7,4
286,2	0,4
286,7	-7,8
287,1	-1,4
287,6	-16,4
288,1	-0,4
288,5	14
289	30,8
289,5	5,4
289,9	-10,4
290,4	18,8
290,8	14,2
291,3	38
291,8	13,4
292,2	25,8
292,7	13
293,1	15
293,6	13
294,1	-25,2
294,5	-8,2
295	32,8
295,5	28
295,9	31,4
296,4	24
296,8	24
297,3	0,6
297,8	7,8
298,2	25
298,7	10
299,1	36,8
299,6	-25
300,1	5,2
300,5	33,2
301	26
301,5	8,8
301,9	19,8
302,4	22,8
302,8	-9,2
303,3	-5,6
303,8	8,8
304,2	2,4
304,7	20,8
305,1	36,4
305,6	47,2
306,1	4,4
306,5	7,8
307	14,8
307,4	15,6
307,9	3,4
308,4	32,2
308,8	6
309,3	4,6
309,8	12,6
310,2	11,8
310,7	-10,8
311,1	-0,4
311,6	8,6
312,1	14,2
312,5	32,6
313	15
313,4	44
313,9	7,8
314,4	9
314,8	1,4
315,3	18,2
315,7	-16,2
316,2	-7,8
316,7	-20,2
317,1	4,2
317,6	15,4
318	43,6
318,5	-14,2
319	6,6
319,4	16,8
319,9	5,2
320,3	15
320,8	-3
321,3	29
321,7	24,8
322,2	-5
322,6	19,2
323,1	0,6
323,6	-1,4
324	48,8
324,5	39
324,9	12,8
325,4	27,6
325,9	-0,8
326,3	16,4
326,8	30,2
327,2	-2
327,7	18,4
328,2	15,4
328,6	40
329,1	2,8
329,5	-15,2
330	56,6
330,5	1,4
330,9	7,6
331,4	12,6
331,8	-23
332,3	16,6
332,8	25,4
333,2	18,6
333,7	15,2
334,1	-10,8
334,6	23
335,1	-1,2
335,5	18,4
336	7,2
336,4	18,6
336,9	13,2
337,4	-9
337,8	15,8
338,3	12,8
338,7	17
339,2	1,2
339,7	54,8
340,1	-2
340,6	30
341	-16
341,5	6
342	19,2
342,4	-6
342,9	41
343,3	-9
343,8	12
344,2	-21
344,7	34,6
345,2	4,4
345,6	-16,2
346,1	3,6
346,5	7,4
347	0
347,5	5
347,9	12,4
348,4	11,2
348,8	8
349,3	21,6
349,8	22,6
350,2	7,8
350,7	4
351,1	1
351,6	24
352	6,6
352,5	5,4
353	-15,6
353,4	18,8
353,9	22,4
354,3	35,2
354,8	55,2
355,3	18,8
355,7	32
356,2	48
356,6	50,6
357,1	93,4
357,5	110,8
358	109
358,5	121,8
358,9	123,4
359,4	135
359,8	162,6
360,3	191,8
360,8	223,6
361,2	260
361,7	273
362,1	317,2
362,6	343,2
363	410,4
363,5	449,6
364	490
364,4	540,8
364,9	619,2
365,3	667,6
365,8	691
366,3	759,6
366,7	780
367,2	858,8
367,6	867,8
368,1	887,2
368,5	932,2
369	929,4
369,5	941,4
369,9	933,8
370,4	932,6
370,8	886,2
371,3	865,8
371,7	868,4
372,2	796,8
372,7	788,4
373,1	747,2
373,6	669,4
374	678,4
374,5	599,6
374,9	564,4
375,4	503,8
375,9	508
376,3	438,6
376,8	426,4
377,2	360,8
377,7	353,2
378,2	324,8
378,6	308,4
379,1	254
379,5	232,2
380	216,2
380,4	191
380,9	199,6
381,4	180,6
381,8	134,2
382,3	159,8
382,7	152,4
383,2	110,6
383,6	163,2
384,1	127,6
384,6	119,6
385	77,8
385,5	75,2
385,9	102,4
386,4	70
386,8	90,8
387,3	76,4
387,7	74
388,2	67,2
388,7	48,6
389,1	61,8
389,6	71
390	45,2
390,5	61
390,9	19
391,4	61,8
391,9	42,2
392,3	29,8
392,8	26,4
393,2	37,4
393,7	44,6
394,1	41,4
394,6	47,2
395,1	47,2
395,5	2,6
396	5,2
396,4	17
396,9	32,2
397,3	18,8
397,8	19,8
398,2	25
398,7	16,8
399,2	27,4
399,6	40,8
400,1	14,8
400,5	18,4
401	14,4
401,4	31,2
401,9	64,6
402,4	20
402,8	10,4
403,3	13,8
403,7	32,4
404,2	21,4
404,6	28,4
405,1	51,6
405,5	26,6
406	34,8
406,5	30,2
406,9	42,2
407,4	35
407,8	15,8
408,3	40,2
408,7	40
409,2	24,6
409,6	45,4
410,1	51,8
410,6	34
411	50,8
411,5	46,2
411,9	33,4
412,4	26,4
412,8	65,6
413,3	67
413,7	83,4
414,2	89,6
414,7	68,4
415,1	66,8
415,6	76,8
416	109,6
416,5	64,4
416,9	107,4
417,4	119,2
417,8	104,2
418,3	114
418,8	132,2
419,2	118,8
419,7	133,4
420,1	152,2
420,6	187,6
421	143
421,5	162,8
421,9	177,4
422,4	179,4
422,8	230
423,3	173,4
423,8	227
424,2	226,8
424,7	243,6
425,1	224,4
425,6	266,8
426	254,8
426,5	263,4
426,9	275,8
427,4	310,4
427,9	321,8
428,3	343,6
428,8	354,4
429,2	378,4
429,7	396,8
430,1	423,2
430,6	460,2
431	471,8
431,5	473,8
431,9	471,8
432,4	526
432,8	554,8
433,3	558
433,8	621
434,2	651,6
434,7	667,6
435,1	688,8
435,6	730,2
436	729,2
436,5	810
436,9	801
437,4	887,8
437,8	899,6
438,3	922,6
438,8	997
439,2	1033
439,7	1085,4
440,1	1122
440,6	1186,4
441	1233,2
441,5	1283,2
441,9	1343
442,4	1352,6
442,8	1482
443,3	1504,4
443,7	1581,8
444,2	1621
444,7	1709,2
445,1	1789,2
445,6	1846,4
446	1900,2
446,5	1996
446,9	2062,4
447,4	2144,4
447,8	2227,6
448,3	2318
448,7	2391
449,2	2482
449,6	2542,6
450,1	2657,8
450,6	2732,2
451	2871
451,5	2908,6
451,9	3017,8
452,4	3081,2
452,8	3250,2
453,3	3335
453,7	3432,8
454,2	3512,6
454,6	3611
455,1	3754,2
455,5	3878
456	3921,6
456,4	4035,6
456,9	4145,8
457,3	4226,4
457,8	4378
458,3	4532,4
458,7	4666
459,2	4763,4
459,6	4870
460,1	4984
460,5	5132,4
461	5260,2
461,4	5353,4
461,9	5480,4
462,3	5584,8
462,8	5731,6
463,2	5793,2
463,7	5974
464,1	6066
464,6	6179,6
465	6361,6
465,5	6458
466	6597,8
466,4	6698,6
466,9	6824
467,3	6953,8
467,8	7013,6
468,2	7165,2
468,7	7283
469,1	7438,4
469,6	7530,6
470	7639,6
470,5	7753,8
470,9	7922,2
471,4	7983,8
471,8	8121
472,3	8189,4
472,7	8305,8
473,2	8416,2
473,6	8560,4
474,1	8601,8
474,5	8788
475	8780,2
475,4	8926
475,9	9037
476,4	9146,8
476,8	9259
477,3	9258,4
477,7	9377,8
478,2	9471,4
478,6	9561,2
479,1	9635,6
479,5	9715
480	9801,4
480,4	9855,8
480,9	9891
481,3	9966,2
481,8	10015
482,2	10061,4
482,7	10105,2
483,1	10141,8
483,6	10188,6
484	10263
484,5	10304,2
484,9	10299,2
485,4	10374
485,8	10441,2
486,3	10463,6
486,7	10464,4
487,2	10470
487,6	10504,4
488,1	10512,4
488,5	10560,6
489	10542,8
489,4	10561
489,9	10543
490,4	10504
490,8	10563,4
491,3	10498,8
491,7	10518,8
492,2	10556
492,6	10533,2
493,1	10416,8
493,5	10530,2
494	10440,2
494,4	10393,2
494,9	10304,2
495,3	10344,2
495,8	10290,6
496,2	10237,6
496,7	10210,6
497,1	10183,8
497,6	10149,4
498	10122,4
498,5	10048
498,9	10039,8
499,4	9973,6
499,8	9914,4
500,3	9821,8
500,7	9894,8
501,2	9792
501,6	9708,4
502,1	9676,6
502,5	9592,6
503	9552,4
503,4	9533,6
503,9	9453,8
504,3	9403,8
504,8	9404,8
505,2	9325,8
505,7	9260
506,1	9074,6
506,6	9055,2
507	9009,4
507,5	8956,4
507,9	8891,6
508,4	8863,4
508,8	8761,2
509,3	8654
509,7	8587,8
510,2	8521
510,6	8468
511,1	8365,4
511,5	8317,6
512	8199,2
512,4	8176,8
512,9	8072,2
513,3	7971,8
513,8	7950,8
514,2	7812,4
514,7	7766
515,1	7748,6
515,6	7626,6
516	7538,6
516,5	7463,6
516,9	7377,8
517,4	7343,4
517,8	7232,2
518,3	7197,4
518,7	7151,4
519,2	7057,2
519,6	6948,2
520,1	6803,2
520,5	6788,6
521	6709,8
521,4	6663,8
521,9	6553,4
522,3	6449,8
522,8	6432
523,2	6384
523,7	6294,8
524,1	6219,4
524,6	6170,4
525	6065,6
525,5	6036
525,9	5978
526,4	5898,4
526,8	5849,6
527,3	5704,4
527,7	5707,6
528,2	5630,8
528,6	5559,6
529,1	5499,4
529,5	5439,2
530	5405,4
530,4	5253,2
530,9	5251
531,3	5177,6
531,8	5171,2
532,2	5058,8
532,6	5014,4
533,1	4973,8
533,5	4943,6
534	4843,4
534,4	4822,2
534,9	4735,8
535,3	4715,6
535,8	4654,8
536,2	4609,2
536,7	4552,4
537,1	4454,8
537,6	4438,8
538	4396,8
538,5	4335,8
538,9	4298,8
539,4	4201
539,8	4210,2
540,3	4150,2
540,7	4086,6
541,2	4063,2
541,6	4005,8
542,1	3983,6
542,5	3896,6
543	3885,2
543,4	3822
543,9	3801,2
544,3	3725,2
544,8	3745,2
545,2	3711,8
545,7	3619,2
546,1	3603,2
546,5	3604
547	3507,6
547,4	3530,2
547,9	3435,4
548,3	3418,4
548,8	3377,8
549,2	3359,2
549,7	3303
550,1	3276,6
550,6	3272,6
551	3237
551,5	3178,2
551,9	3114,6
552,4	3105
552,8	3084,6
553,3	3079,8
553,7	3050,6
554,2	2997,2
554,6	2961,8
555,1	2962,2
555,5	2913,2
555,9	2866
556,4	2863
556,8	2824
557,3	2802,8
557,7	2785
558,2	2772
558,6	2694,6
559,1	2697,8
559,5	2662,8
560	2674,2
560,4	2624,4
560,9	2604,6
561,3	2595,6
561,8	2570,4
562,2	2585,6
562,7	2527,4
563,1	2464,6
563,6	2487,2
564	2450,4
564,4	2418,8
564,9	2441
565,3	2369,2
565,8	2402,8
566,2	2334,8
566,7	2358,6
567,1	2308,8
567,6	2281,2
568	2289,4
568,5	2216
568,9	2223,8
569,4	2212,8
569,8	2202,6
570,3	2180
570,7	2184,2
571,1	2126,6
571,6	2150,4
572	2119,8
572,5	2109,8
572,9	2083,2
573,4	2069,8
573,8	2022,2
574,3	2021
574,7	2050,4
575,2	1993,4
575,6	1991,4
576,1	1964,6
576,5	1950,6
576,9	1963,6
577,4	1920,2
577,8	1896,6
578,3	1876,4
578,7	1873,4
579,2	1860,4
579,6	1871,4
580,1	1810
580,5	1809,8
581	1815,2
581,4	1792,2
581,9	1765,6
582,3	1799,2
582,7	1768,4
583,2	1724
583,6	1731,4
584,1	1700,2
584,5	1687,6
585	1679,4
585,4	1669,8
585,9	1650,6
586,3	1608,4
586,8	1634,8
587,2	1581,2
587,6	1601,6
588,1	1613,2
588,5	1612,8
589	1550,6
589,4	1551,8
589,9	1578,2
590,3	1553,2
590,8	1529,8
591,2	1503,2
591,7	1513,4
592,1	1479
592,5	1511,2
593	1472,2
593,4	1485,4
593,9	1485,2
594,3	1452,6
594,8	1484
595,2	1462,4
595,7	1446,4
596,1	1394,2
596,6	1395,6
597	1411,6
597,4	1402,8
597,9	1394
598,3	1365,6
598,8	1354,2
599,2	1337,4
599,7	1336,2
600,1	1319,2
600,6	1348,6
601	1343,6
601,4	1299,8
601,9	1298
602,3	1326,4
602,8	1266
603,2	1304,8
603,7	1269
604,1	1273,8
604,6	1276,2
605	1265,6
605,4	1216,4
605,9	1234,8
606,3	1224,4
606,8	1240
607,2	1201
607,7	1195
608,1	1224,8
608,6	1171,8
609	1194,8
609,4	1159,6
609,9	1180
610,3	1160
610,8	1133,6
611,2	1180,4
611,7	1157,6
612,1	1118,2
612,6	1103,8
613	1149,4
613,4	1127,6
613,9	1054
614,3	1100,4
614,8	1069,6
615,2	1097,8
615,7	1089,6
616,1	1080,8
616,6	1061,4
617	1063
617,4	1051,2
617,9	1065,2
618,3	1014
618,8	1007,4
619,2	1051
619,7	1034
620,1	1036
620,5	1007,8
621	1021,4
621,4	983
621,9	945,2
622,3	969,6
622,8	980,4
623,2	957,2
623,6	964
624,1	970
624,5	941,4
625	940,4
625,4	919,4
625,9	930,6
626,3	911
626,8	920,8
627,2	918,6
627,6	914
628,1	893,8
628,5	876
629	876,8
629,4	853
629,9	909,2
630,3	896
630,7	865,4
631,2	853
631,6	846,6
632,1	836,2
632,5	876,4
633	811,8
633,4	820,4
633,8	817
634,3	806
634,7	788
635,2	833,6
635,6	827,4
636,1	790,4
636,5	831,6
636,9	781,6
637,4	771
637,8	777,2
638,3	752,8
638,7	756,8
639,2	761,8
639,6	758,8
640	752
640,5	721,2
640,9	744,2
641,4	717,4
641,8	745,2
642,2	735,6
642,7	693,4
643,1	716,6
643,6	722,6
644	698,4
644,5	707,6
644,9	685,8
645,3	740,6
645,8	705
646,2	688,2
646,7	666,6
647,1	682,8
647,6	662
648	664
648,4	647,2
648,9	669,2
649,3	641,2
649,8	630,2
650,2	654,2
650,6	635,6
651,1	640,4
651,5	651
652	643,6
652,4	583,6
652,9	593
653,3	622,6
653,7	611,2
654,2	624,4
654,6	610,8
655,1	586,4
655,5	647
655,9	580,4
656,4	594,2
656,8	601,6
657,3	604,4
657,7	591,4
658,2	590,6
658,6	600,2
659	571,6
659,5	533,2
659,9	518,6
660,4	558,4
660,8	559
661,2	575,2
661,7	539
662,1	553
662,6	558,2
663	508,6
663,4	511,8
663,9	521,6
664,3	531,4
664,8	488,8
665,2	519,4
665,6	494,8
666,1	485,6
666,5	489
667	479,6
667,4	501,8
667,9	478,8
668,3	470
668,7	484,8
669,2	484,6
669,6	498,2
670,1	437,4
670,5	483,2
670,9	465
671,4	456,4
671,8	475,4
672,3	471,2
672,7	460
673,1	479,2
673,6	453,2
674	450,6
674,5	442,6
674,9	454,6
675,3	451,8
675,8	440
676,2	482,2
676,7	445
677,1	432,2
677,5	423,8
678	447,6
678,4	417,4
678,9	448
679,3	408,4
679,7	427
680,2	405,2
680,6	391,6
681,1	417,2
681,5	364,8
681,9	435
682,4	395,4
682,8	384,2
683,3	406
683,7	378,6
684,1	405
684,6	390,4
685	373,6
685,5	368,8
685,9	373,2
686,3	355,4
686,8	375,2
687,2	362,2
687,7	369,6
688,1	380,6
688,5	371,8
689	351,4
689,4	364,6
689,9	360,4
690,3	366,2
690,7	355,6
691,2	348,6
691,6	371,2
692	315
692,5	360
692,9	343,2
693,4	364
693,8	343
694,2	347,8
694,7	309,8
695,1	305
695,6	333,2
696	336,6
696,4	320
696,9	310,8
697,3	306,2
697,8	323,2
698,2	302
698,6	307,6
699,1	327
699,5	304,8
699,9	320,6
700,4	300,6
700,8	310,4
701,3	298,2
701,7	335
702,1	300
702,6	312,8
703	285,2
703,5	262,4
703,9	253,8
704,3	294,4
704,8	253,8
705,2	268,8
705,6	281,4
706,1	267,2
706,5	269
707	264
707,4	272,4
707,8	253
708,3	261,6
708,7	243,6
709,2	282,4
709,6	256,4
710	276,2
710,5	267
710,9	242,2
711,3	272,2
711,8	291,8
712,2	261,2
712,7	255
713,1	238,8
713,5	267,4
714	257,8
714,4	256,4
714,8	234,2
715,3	263,2
715,7	222,2
716,2	231,6
716,6	219,4
717	238,6
717,5	227,8
717,9	219
718,3	225,6
718,8	222
719,2	224
719,7	245,8
720,1	223
720,5	223,2
721	227,2
721,4	206
721,8	212,2
722,3	201,6
722,7	218,4
723,2	191,6
723,6	223
724	229,4
724,5	197
724,9	232,6
725,3	202,4
725,8	200,4
726,2	207,8
726,7	203,8
727,1	208,6
727,5	200,8
728	184,2
728,4	189
728,8	204,8
729,3	175,6
729,7	166
730,1	208,4
730,6	193
731	201,2
731,5	176,2
731,9	176
732,3	197
732,8	203,4
733,2	217
733,6	182,2
734,1	182,6
734,5	211
734,9	175,4
735,4	185
735,8	173
736,3	200
736,7	159,4
737,1	154,8
737,6	169,4
738	176,6
738,4	160,4
738,9	160,8
739,3	180,6
739,7	164
740,2	150,2
740,6	151,8
741,1	153,6
741,5	151,4
741,9	152
742,4	169,8
742,8	137,6
743,2	188,2
743,7	144,2
744,1	153,2
744,5	151
745	114,4
745,4	170,2
745,8	149,4
746,3	175
746,7	146,2
747,2	133
747,6	171,4
748	148,2
748,5	155,4
748,9	125,2
749,3	143,2
749,8	121,8
750,2	175,6
750,6	169,6
751,1	154,6
751,5	170,6
751,9	167,4
752,4	135,6
752,8	137,4
753,3	152,4
753,7	140,6
754,1	140,6
754,6	141
755	134
755,4	109
755,9	111,4
756,3	112,2
756,7	149,6
757,2	136,2
757,6	117,6
758	130,4
758,5	131,2
758,9	144,4
759,3	146
759,8	126,8
760,2	115,2
760,6	100,2
761,1	140,2
761,5	135,2
761,9	131,8
762,4	125,6
762,8	153,6
763,3	100
763,7	121,4
764,1	146,6
764,6	75,8
765	114,2
765,4	119,8
765,9	124,2
766,3	124,8
766,7	111
767,2	123
767,6	117,2
768	118,4
768,5	136
768,9	112
769,3	118
769,8	93,4
770,2	87,4
770,6	94,4
771,1	126,8
771,5	103,2
771,9	97
772,4	134,8
772,8	115,4
773,2	87,8
773,7	110,4
774,1	99
774,5	123,8
775	114
775,4	127,4
775,8	106,6
776,3	101,8
776,7	83
777,1	98,6
777,6	86,6
778	117
778,4	81,2
778,9	112,8
779,3	77,2
779,7	124,6
780,2	107,4
780,6	84,6
781	114,4
781,5	63
781,9	87
782,3	108,8
782,8	111,6
783,2	89,2
783,6	84
784,1	83
784,5	89,4
784,9	71,4
785,4	85,4
785,8	102,6
786,2	65,8
786,7	82,6
787,1	108,2
787,5	89,4
788	81,6
788,4	48,4
788,8	88
789,3	102,4
789,7	75,2
790,1	98
790,6	80,4
791	92,2
791,4	115,6
791,9	48,6
792,3	74
792,7	75,2
793,2	57
793,6	85,6
794	55
794,5	87,6
794,9	78,6
795,3	82,4
795,8	69,2
796,2	72,2
796,6	69,2
797,1	75,2
797,5	112
797,9	64,6
798,4	96,2
798,8	62,4
799,2	84,6
799,7	81,4
800,1	102,6
800,5	82,4
801	62
801,4	62,6
801,8	63
802,2	66
802,7	72
803,1	91,2
803,5	66
804	58,4
804,4	61,2
804,8	75,6
805,3	89,2
805,7	56,4
806,1	58,6
806,6	41,8
807	89,6
807,4	72,8
807,9	68,6
808,3	80,2
808,7	72
809,2	60,6
809,6	69,2
810	100,2
810,4	62,4
810,9	88,8
811,3	91,8
811,7	40,4
812,2	78,8
812,6	104,8
813	65,4
813,5	69,6
813,9	39,4
814,3	69
814,8	51,8
815,2	56
815,6	74,4
816,1	57,4
816,5	38,6
816,9	72
817,3	45,8
817,8	64,4
818,2	69,6
818,6	41,4
819,1	61
819,5	40,2
819,9	70,4
820,4	62
820,8	48,4
821,2	46,4
821,7	43
822,1	68
822,5	70
822,9	83,4
823,4	59
823,8	72,4
824,2	55
824,7	36,4
825,1	45,6
825,5	45,2
826	25,2
826,4	38,4
826,8	59,8
827,3	37,8
827,7	42,6
828,1	23,2
828,5	59,8
829	51,4
829,4	51,6
829,8	60
830,3	53,2
830,7	62
831,1	58,8
831,6	50,8
832	56
832,4	47,2
832,8	43,8
833,3	62,2
833,7	49,2
834,1	59
834,6	50
835	60,2
835,4	55,6
835,8	65,4
836,3	68,6
836,7	35,4
837,1	38
837,6	42,6
838	54,2
838,4	47
838,9	60,2
839,3	71
839,7	21,4
840,1	28
840,6	30,8
841	36,2
841,4	14,2
841,9	30,6
842,3	51,2
842,7	49,2
843,1	48
843,6	47
844	24,8
844,4	50,6
844,9	41,4
845,3	31,2
845,7	25,6
846,2	39,8
846,6	34,6
847	25,6
847,4	36,6
847,9	34,2
848,3	25,2
848,7	32,2
849,2	43,6
849,6	54
850	37,4
850,4	26
850,9	39,4
851,3	33,8
851,7	16,2
852,2	23
852,6	11,6
853	51,2
853,4	33,2
853,9	11,6
854,3	16
854,7	46,2
855,2	45,6
855,6	25
856	21,4
856,4	24,2
856,9	36,4
857,3	73,8
857,7	-24
858,2	43,8
858,6	40,2
859	56,4
859,4	22,6
859,9	21,8
860,3	2,2
860,7	-5,8
861,1	7,2
861,6	20
862	32,2
862,4	26
862,9	31,4
863,3	41,6
863,7	15,2
864,1	13,8
864,6	57
865	25,6
865,4	33,4
865,9	42,2
866,3	12,2
866,7	50,8
867,1	24,2
867,6	-2,4
868	40,6
868,4	29
868,8	2,2
869,3	28,2
869,7	27,8
870,1	23,8
870,6	-6,4
871	23
871,4	-4,8
871,8	9,2
872,3	488,8
872,7	18,2
873,1	23
873,5	44
874	18,6
874,4	0,6
874,8	22
875,3	38,4
875,7	12,4
876,1	14,6
876,5	49,4
877	38
877,4	5,8
877,8	20,4
878,2	14,8
878,7	35
879,1	16,2
879,5	48
879,9	20,8
880,4	21,2
880,8	65
881,2	24,6
881,7	2,2
882,1	33,2
882,5	50
882,9	31,2
883,4	-1,4
883,8	21
884,2	14,6
884,6	12
885,1	22,2
885,5	43,8
885,9	16,2
886,3	2,6
886,8	22
887,2	17,4
887,6	14,2
888	26,8
888,5	27,2
888,9	24,6
889,3	29,4
889,8	27,2
890,2	22,2
890,6	-14
891	10,6
891,5	15,2
891,9	13,2
892,3	16,6
892,7	38,6
893,2	40
893,6	4
894	5
894,4	9
894,9	24,2
895,3	13,4
895,7	31,4
896,1	12,6
896,6	36
897	29
897,4	13,2
897,8	17
898,3	23
898,7	20,4
899,1	21,8
899,5	4,4
900	44,2
900,4	21,4
900,8	8,8
901,2	-7,2
901,7	26,2
902,1	40,8
902,5	9,4
902,9	55
903,4	10,8
903,8	20,2
904,2	-8,2
904,6	33,8
905,1	15,8
905,5	20,4
905,9	21
906,3	24,2
906,8	34,6
907,2	-3,6
907,6	0,2
908	1,8
908,5	-8,2
908,9	9,8
909,3	25,6
909,7	18
910,2	16,2
910,6	5,2
911	13
911,4	0,6
911,9	15,4
912,3	20,6
912,7	5
913,1	22,4
913,6	24
914	6,2
914,4	11,8
914,8	-4,4
915,3	26,4
915,7	36,4
916,1	24,4
916,5	33,8
916,9	-21
917,4	-17,8
917,8	-0,4
918,2	5,4
918,6	13,6
919,1	-4,6
919,5	27,6
919,9	-1
920,3	41
920,8	-1,4
921,2	7
921,6	25,8
922	4,4
922,5	36,6
922,9	-7,6
923,3	18
923,7	13,4
924,2	6,8
924,6	27,4
925	2,6
925,4	47,4
925,8	24,8
926,3	-1,2
926,7	30,4
927,1	-2,2
927,5	-11
928	38,2
928,4	-6,2
928,8	12,8
929,2	-0,8
929,7	25,8
930,1	16
930,5	29
930,9	37,6
931,3	8,2
931,8	15,6
932,2	2
932,6	-6
933	11
933,5	13,6
933,9	22
934,3	24
934,7	-2,8
935,2	3,4
935,6	3,6
936	14,2
936,4	14,6
936,8	24
937,3	27
937,7	20
938,1	-5,2
938,5	-3,6
939	6,4
939,4	5,6
939,8	11,4
940,2	29,4
940,6	10,8
941,1	-3
941,5	5,4
941,9	-8,8
942,3	1,4
942,8	-16,2
943,2	7,2
943,6	11
944	24
944,4	-3
944,9	2,6
945,3	9,6
945,7	-11,2
946,1	28,6
946,6	3
947	-16,2
947,4	28,4
947,8	8,4
948,2	7,6
948,7	9
949,1	-8,2
949,5	12,6
949,9	26,8
950,3	13,2
950,8	-10,2
951,2	9
951,6	35
952	0,6
952,5	23,4
952,9	15,6
953,3	13,6
953,7	9,4
954,1	3,2
954,6	4
955	-3,6
955,4	-6,4
955,8	10,2
956,2	22,6
956,7	11,2
957,1	21,8
957,5	9,8
957,9	15,6
958,3	2,6
958,8	0,4
959,2	27,2
959,6	19,4
960	11,6
960,5	-6
960,9	-29,8
961,3	-9,4
961,7	18,8
962,1	-3,4
962,6	3,2
963	14
963,4	34,8
963,8	11
964,2	1,8
964,7	23
965,1	30,8
965,5	29,2
965,9	-8
966,3	38,6
966,8	-11,6
967,2	-2,2
967,6	22,8
968	-1,8
968,4	26,4
968,9	10,8
969,3	21,4
969,7	22,6
970,1	-13,4
970,5	-6,8
971	-6,4
971,4	44
971,8	7,6
972,2	41
972,6	29
973,1	-5,6
973,5	-0,6
973,9	9
974,3	-9,6
974,7	21,8
975,2	10,2
975,6	13
976	3,6
976,4	-9,6
976,8	-3,4
977,3	1,6
977,7	28,4
978,1	23,8
978,5	12,6
978,9	15,2
979,4	20
979,8	32,8
980,2	-4,4
980,6	2,8
981	29,8
981,5	35,6
981,9	25,8
982,3	8,6
982,7	30
983,1	21
983,6	16,8
984	22,2
984,4	-23,8
984,8	-16,8
985,2	7,4
985,6	-6,8
986,1	-1,4
986,5	-5,6
986,9	28,6
987,3	7,4
987,7	22
988,2	22
988,6	7,6
989	6,8
989,4	7
989,8	-14,4
990,3	22,6
990,7	0
991,1	23,2
991,5	18,8
991,9	22,4
992,3	5,2
992,8	24,2
993,2	2,6
993,6	45,2
994	-16,2
994,4	2,6
994,9	0
995,3	27,6
995,7	-4,8
996,1	-6,2
996,5	22
996,9	24
997,4	0,6
997,8	23,2
998,2	19,6
998,6	37,2
999	-11
999,5	7,2
999,9	23,2
1000,3	27,6
1000,7	-9,6
1001,1	21,8
1001,5	-4,4
1002	-7
1002,4	23
1002,8	24,4
1003,2	30
1003,6	15
1004	5
1004,5	-20,4
1004,9	17,6
1005,3	0
1005,7	1,2
1006,1	7,6
1006,6	0,6
1007	15,4
1007,4	15,8
1007,8	14
1008,2	20,6
1008,6	29,6
1009,1	-1
1009,5	0,4
1009,9	-9,4
1010,3	1
1010,7	-20,2
1011,1	11,8
1011,6	15
1012	12
1012,4	12,4
1012,8	6
1013,2	29,8
1013,6	-11,8
1014,1	6,6
1014,5	-0,8
1014,9	14,2
1015,3	-7
1015,7	-15,6
1016,1	-4,2
1016,6	-8,4
1017	-8,2
1017,4	-27,2
1017,8	-2
1018,2	16,6
1018,6	11,2
1019,1	23
1019,5	17,4
1019,9	5,2
1020,3	35
1020,7	-2,2
1021,1	-1,8
1021,6	-4,2
1022	-21,8
1022,4	-4,4
1022,8	30,6
1023,2	9,8
1023,6	-6,6
1024,1	-7,6
1024,5	-8,8
1024,9	6
1025,3	-27
1025,7	22
1026,1	13,8
1026,6	22,6
1027	16,4
1027,4	42,2
1027,8	19
1028,2	16
1028,6	14,4
1029	-11,2
1029,5	17
1029,9	-5,4
1030,3	23,2
1030,7	17
1031,1	23,4
1031,5	-14
1032	-5,8
1032,4	31,2
1032,8	15,2
1033,2	23,8
1033,6	16
1034	20,2
1034,4	15,2
1034,9	-13
1035,3	-10,8
1035,7	-11,4
1036,1	1
1036,5	-5,8
1036,9	-3
1037,4	24
1037,8	31,8
1038,2	14,8
1038,6	-1,2
1039	1
1039,4	21
1039,8	18
1040,3	12,2
1040,7	13,8
1041,1	7,6
1041,5	-18
1041,9	-11,6
1042,3	15,6
1042,7	14,6
1043,2	-22,4
1043,6	39,4
1044	1,4
1044,4	29,8
1044,8	-10,8
1045,2	-9,6
1045,6	22,2
1046,1	-14,8
1046,5	8,8
1046,9	-10,8
1047,3	9,8
1047,7	44,2
1048,1	13,8
1048,5	-4,2
1049	3,6
1049,4	-18,6
1049,8	20,4
1050,2	-5,2
1050,6	11,4
1051	32,4
1051,4	-5,4
1051,9	11
1052,3	6,4
1052,7	32,4
1053,1	4,8
1053,5	38
1053,9	5,8
1054,3	3
1054,8	34
1055,2	-9,8
1055,6	-3,6
1056	3,6
1056,4	24,4
1056,8	-15,4
1057,2	30,6
1057,6	6,2
1058,1	-9,8
1058,5	25,8
1058,9	48
1059,3	12,2
1059,7	11,8
1060,1	-22,6
1060,5	2,8
1061	14,4
1061,4	35
1061,8	15,6
1062,2	15
1062,6	22,8
1063	2,4
1063,4	8,4
1063,8	11,8
1064,3	1,2
1064,7	5,8
1065,1	-1,4
1065,5	37,6
1065,9	38,6
1066,3	11,8
1066,7	3,4
1067,1	11,4
1067,6	47,2
1068	35,8
1068,4	15,4
1068,8	-12
1069,2	12,8
1069,6	21,6
1070	29,2
1070,4	-12
1070,9	44,6
1071,3	18,4
1071,7	26,6
1072,1	15
1072,5	-23,4
1072,9	12,6
1073,3	15,6
1073,7	-3
1074,2	-7
1074,6	12,6
1075	9,2
1075,4	31,2
1075,8	8
1076,2	-9,2
1076,6	-12
1077	5
1077,5	28,4
1077,9	30,4
1078,3	21,6
1078,7	10,4
1079,1	20
1079,5	6
1079,9	-3,2
1080,3	-22
1080,7	-9,6
1081,2	-7,2
1081,6	-9,8
1082	4,4
1082,4	21,6
1082,8	0,2
1083,2	34,4
1083,6	-21,2
1084	17,2
1084,5	43
1084,9	-9,6
1085,3	11,8
1085,7	34,8
1086,1	-18,8
1086,5	18
1086,9	31,8
1087,3	1,8
1087,7	24,6
1088,2	5
1088,6	-8
1089	29,8
1089,4	-10
1089,8	-8,4
1090,2	-11,8
1090,6	1,2
1091	-31
1091,4	-15,2
1091,9	19,6
1092,3	37,8
1092,7	41,8
1093,1	-5,6
1093,5	15,2
1093,9	17
1094,3	-9,6
1094,7	-3,8
1095,1	-5,6
1095,5	15,8
1096	28,4
1096,4	17,2
1096,8	7,8
1097,2	10,8
1097,6	-1,2
1098	-10,8
1098,4	9
1098,8	0,8
1099,2	0,2
1099,6	-5,8
1100,1	-20,8
1100,5	-1,6
1100,9	12,2
1101,3	28,2
1101,7	0,6
1102,1	-10,4
1102,5	18,2
1102,9	-7,8
1103,3	20,6
1103,7	-13
1104,2	-0,4
1104,6	-5
1105	16,2
1105,4	18,2
1105,8	21,6
1106,2	5,8
1106,6	22,4
1107	-2,8
1107,4	1
1107,8	0,4
1108,3	3
