Data from Subt2_00018.txt Node
Date: Wed Aug 02 19:13:27 MSK 2023
User: vat
Spectrometer: MAYP114033
Trigger mode: 0
Integration Time (sec): 7,000000E-1
Scans to average: 5
Electric dark correction enabled: true
Nonlinearity correction enabled: false
Boxcar width: 0
XAxis mode: Wavelengths
Number of Pixels in Spectrum: 2068
>>>>>Begin Spectral Data<<<<<
199,4	-1,4
199,9	-0,8
200,4	1,2
200,8	-0,6
201,3	-16,6
201,8	-0
202,2	-20
202,7	6,8
203,2	0,8
203,6	-12,6
204,1	5
204,6	2,2
205	-4,6
205,5	19,6
206	14
206,4	-20,8
206,9	26,6
207,4	5,6
207,8	-22,6
208,3	14,4
208,8	3,4
209,2	13,6
209,7	21,6
210,2	30,8
210,6	-18,2
211,1	-6
211,5	1,8
212	17
212,5	9,4
212,9	5,2
213,4	-11
213,9	10,6
214,3	-2,8
214,8	19,2
215,3	10
215,7	-6
216,2	3,8
216,7	-20
217,1	39,2
217,6	-15,4
218,1	31,6
218,5	7,6
219	34
219,5	25,6
219,9	6,2
220,4	31,2
220,9	-5,4
221,3	-7,2
221,8	-12,6
222,3	-42,6
222,7	-7,6
223,2	16,8
223,6	1,6
224,1	19,4
224,6	14,4
225	-7,6
225,5	-24,8
226	35
226,4	-14
226,9	-3,4
227,4	-16,8
227,8	9,6
228,3	-3,8
228,8	-5,4
229,2	2,6
229,7	14
230,2	-20,6
230,6	-15,8
231,1	10,6
231,5	7,2
232	6,4
232,5	-14,6
232,9	-37,6
233,4	-14,6
233,9	-14
234,3	17,4
234,8	28,4
235,3	3,4
235,7	24
236,2	3,2
236,7	9,4
237,1	16,4
237,6	-10,6
238,1	-4,2
238,5	-25
239	17,4
239,4	-16,4
239,9	-26,2
240,4	29,4
240,8	-3
241,3	-9,8
241,8	11,8
242,2	-0,4
242,7	22,2
243,2	10
243,6	8,6
244,1	-4,6
244,6	24
245	17,2
245,5	1,6
245,9	4,8
246,4	-5,8
246,9	23,8
247,3	-6,4
247,8	14
248,3	-32,6
248,7	27,8
249,2	29
249,7	-1,8
250,1	31,4
250,6	-5,2
251	-5
251,5	-2
252	-8,2
252,4	-20,2
252,9	-0
253,4	-1,8
253,8	30,2
254,3	4,2
254,8	1,6
255,2	32,2
255,7	-5
256,1	-3
256,6	33,2
257,1	-45
257,5	24,2
258	16,6
258,5	12,2
258,9	3,6
259,4	7
259,9	-4,6
260,3	-5
260,8	15,6
261,2	-7,4
261,7	1
262,2	1
262,6	16,2
263,1	30,4
263,6	37,6
264	-20
264,5	-2,2
264,9	34,2
265,4	20
265,9	10,6
266,3	5
266,8	4,4
267,3	18,4
267,7	-3,2
268,2	13,8
268,7	-4,6
269,1	11,4
269,6	5,6
270	12,6
270,5	-17,8
271	-3,8
271,4	11,6
271,9	-3,6
272,4	4,2
272,8	6
273,3	36,6
273,7	24,2
274,2	7,2
274,7	5
275,1	8
275,6	22
276,1	-12,2
276,5	-23,4
277	34
277,4	22,8
277,9	-11,8
278,4	23,6
278,8	21,4
279,3	-25
279,8	-0
280,2	-0,4
280,7	1,2
281,1	-2
281,6	-6,4
282,1	-14
282,5	10,2
283	13
283,4	23,6
283,9	25,4
284,4	-21
284,8	17,6
285,3	-13,4
285,8	12
286,2	14
286,7	6
287,1	-3,4
287,6	-17
288,1	10,2
288,5	10,2
289	3,6
289,5	12,6
289,9	34,6
290,4	-0
290,8	20,8
291,3	-6,8
291,8	7
292,2	4,8
292,7	3,4
293,1	-1
293,6	9,6
294,1	17
294,5	-15
295	-19,4
295,5	-0,6
295,9	-8,8
296,4	11,8
296,8	-2,8
297,3	2,4
297,8	5,6
298,2	8,4
298,7	-15,8
299,1	-11,6
299,6	-12,8
300,1	10
300,5	-4,2
301	6,6
301,5	-14,8
301,9	25,6
302,4	-9,2
302,8	-1,8
303,3	13,4
303,8	-3,8
304,2	-7,6
304,7	-12,2
305,1	-23
305,6	27
306,1	-9,8
306,5	16,6
307	-4,2
307,4	-3,2
307,9	4,4
308,4	-6
308,8	7,6
309,3	14,2
309,8	6,6
310,2	14,8
310,7	52,2
311,1	9,4
311,6	17
312,1	-15,6
312,5	-6
313	9
313,4	13,8
313,9	24,2
314,4	-2,4
314,8	28
315,3	26,6
315,7	6
316,2	-29
316,7	4,6
317,1	-9
317,6	-9,2
318	6,8
318,5	-10,6
319	6
319,4	29
319,9	-6,2
320,3	27,4
320,8	-11,2
321,3	-22,2
321,7	-1,6
322,2	14,8
322,6	22,8
323,1	29
323,6	9,4
324	-0,8
324,5	22,8
324,9	3,6
325,4	-15,4
325,9	25,6
326,3	28
326,8	8
327,2	28,8
327,7	-9,8
328,2	-4,2
328,6	34,6
329,1	5
329,5	4
330	-6,2
330,5	-3,6
330,9	23,6
331,4	-22,8
331,8	1,8
332,3	-1,2
332,8	-5,2
333,2	39
333,7	3,6
334,1	34,6
334,6	29
335,1	-4,4
335,5	-3,6
336	8
336,4	3,2
336,9	-9
337,4	-19,2
337,8	-3,6
338,3	13,8
338,7	-11
339,2	3,2
339,7	16,4
340,1	5
340,6	5,2
341	15
341,5	0,6
342	6,2
342,4	-7
342,9	-13,8
343,3	19,8
343,8	25,6
344,2	-11,2
344,7	-33,2
345,2	23,6
345,6	2,4
346,1	27,2
346,5	1,2
347	13,2
347,5	-14,6
347,9	15,4
348,4	12,6
348,8	39
349,3	16
349,8	23
350,2	-9,8
350,7	49,2
351,1	23
351,6	20
352	1,4
352,5	-24
353	-4,2
353,4	25,8
353,9	24,8
354,3	31,8
354,8	20,4
355,3	42,6
355,7	43,2
356,2	61,2
356,6	45,4
357,1	50,8
357,5	84,8
358	96,2
358,5	72,8
358,9	108,8
359,4	133,8
359,8	116,2
360,3	147,4
360,8	148
361,2	207,6
361,7	223,2
362,1	215,6
362,6	292,6
363	313,2
363,5	374,6
364	418,4
364,4	471,8
364,9	488,8
365,3	528,6
365,8	583,6
366,3	614,2
366,7	613,4
367,2	700,6
367,6	699
368,1	742
368,5	788
369	744,8
369,5	780,6
369,9	747,4
370,4	742,2
370,8	733,4
371,3	708,2
371,7	652,2
372,2	687,2
372,7	611
373,1	577,6
373,6	596
374	481,2
374,5	471,2
374,9	440,8
375,4	418,4
375,9	433,8
376,3	342,2
376,8	319,2
377,2	356
377,7	304,6
378,2	275,8
378,6	234,4
379,1	216
379,5	214,8
380	172,4
380,4	160,6
380,9	158,2
381,4	150,4
381,8	133,2
382,3	119,4
382,7	105,6
383,2	114,2
383,6	127
384,1	97,8
384,6	102
385	81,8
385,5	90,2
385,9	71
386,4	72,8
386,8	63,2
387,3	33,6
387,7	93,4
388,2	35,6
388,7	73
389,1	41,2
389,6	37,4
390	54,4
390,5	70
390,9	37,6
391,4	33
391,9	17,8
392,3	64,4
392,8	62,8
393,2	52,4
393,7	63,4
394,1	14
394,6	39,2
395,1	29,2
395,5	22,2
396	40
396,4	27,6
396,9	41,6
397,3	44,2
397,8	23,2
398,2	33,8
398,7	45,8
399,2	44,8
399,6	57,6
400,1	19,8
400,5	35,6
401	42,8
401,4	29,2
401,9	40,8
402,4	37,4
402,8	23,6
403,3	37,8
403,7	45,8
404,2	43,2
404,6	77,8
405,1	31,2
405,5	4,2
406	49
406,5	26,4
406,9	25,4
407,4	27,8
407,8	39,2
408,3	46,2
408,7	36,4
409,2	33
409,6	26,4
410,1	34,2
410,6	73
411	36,4
411,5	47,8
411,9	39,4
412,4	54,4
412,8	86,8
413,3	64,6
413,7	42,8
414,2	65,8
414,7	31,2
415,1	79
415,6	59,6
416	59,8
416,5	80
416,9	72,4
417,4	83,6
417,8	90,2
418,3	109,8
418,8	95,4
419,2	82,8
419,7	137,4
420,1	97,8
420,6	118,6
421	131
421,5	141
421,9	120,4
422,4	122,8
422,8	131,6
423,3	131,6
423,8	157,8
424,2	115,2
424,7	153,8
425,1	143,6
425,6	170
426	157,8
426,5	136,8
426,9	176,8
427,4	176,8
427,9	198,6
428,3	184,2
428,8	170,4
429,2	189
429,7	185,8
430,1	192,4
430,6	236,2
431	222,8
431,5	222,4
431,9	229,6
432,4	214,2
432,8	258,2
433,3	221,4
433,8	272,8
434,2	281,6
434,7	281
435,1	256
435,6	302,4
436	283,6
436,5	317
436,9	348
437,4	374,4
437,8	359,4
438,3	375,2
438,8	398,8
439,2	399
439,7	404,6
440,1	441,6
440,6	447,4
441	487,2
441,5	469,6
441,9	525,4
442,4	540
442,8	513,2
443,3	566,6
443,7	581,4
444,2	597
444,7	593,6
445,1	618,6
445,6	654,2
446	667,4
446,5	695
446,9	719,8
447,4	734,6
447,8	754
448,3	769,2
448,7	779,8
449,2	833,2
449,6	828,4
450,1	885
450,6	882
451	939,4
451,5	925,4
451,9	991,6
452,4	968,8
452,8	1056
453,3	1026,2
453,7	1068,4
454,2	1100,6
454,6	1160,8
455,1	1152
455,5	1187,6
456	1203,2
456,4	1232,6
456,9	1277,6
457,3	1278
457,8	1340,4
458,3	1332,6
458,7	1390
459,2	1442,8
459,6	1452,6
460,1	1470,2
460,5	1514,8
461	1542,6
461,4	1547,6
461,9	1550,8
462,3	1617
462,8	1621,4
463,2	1675,2
463,7	1700,4
464,1	1730,6
464,6	1786,6
465	1816,2
465,5	1814,2
466	1853,2
466,4	1856
466,9	1895
467,3	1913,4
467,8	1950,4
468,2	1988,4
468,7	1999,6
469,1	2062,8
469,6	2052,8
470	2085,8
470,5	2088,6
470,9	2105
471,4	2155,2
471,8	2175
472,3	2200,2
472,7	2233,6
473,2	2248,2
473,6	2235,6
474,1	2239,2
474,5	2341,6
475	2334,8
475,4	2337,2
475,9	2355
476,4	2406,6
476,8	2431,6
477,3	2432,4
477,7	2448,2
478,2	2465,4
478,6	2486,8
479,1	2465,8
479,5	2510,2
480	2518,8
480,4	2564,6
480,9	2508
481,3	2518,8
481,8	2582,2
482,2	2552
482,7	2552,8
483,1	2595,8
483,6	2585,4
484	2597,6
484,5	2622,4
484,9	2631,8
485,4	2639
485,8	2661,2
486,3	2650,8
486,7	2681
487,2	2613,6
487,6	2660
488,1	2709,4
488,5	2688,2
489	2663,6
489,4	2661
489,9	2727
490,4	2623
490,8	2707
491,3	2672,2
491,7	2643,4
492,2	2702,8
492,6	2680
493,1	2665,6
493,5	2643,4
494	2669,6
494,4	2615,8
494,9	2642,8
495,3	2659,8
495,8	2673,8
496,2	2611,8
496,7	2582,8
497,1	2629
497,6	2609
498	2614,4
498,5	2566
498,9	2579
499,4	2594,4
499,8	2572,6
500,3	2534,6
500,7	2555,8
501,2	2505,2
501,6	2515,2
502,1	2563,8
502,5	2510,8
503	2502,6
503,4	2465,4
503,9	2478
504,3	2446,2
504,8	2469,6
505,2	2463,4
505,7	2467,6
506,1	2439
506,6	2401,4
507	2368,8
507,5	2424,6
507,9	2359,8
508,4	2366
508,8	2338,4
509,3	2346,8
509,7	2334,2
510,2	2328,6
510,6	2294,4
511,1	2278,4
511,5	2302,6
512	2262,8
512,4	2260,8
512,9	2193
513,3	2197,4
513,8	2198,4
514,2	2160
514,7	2200,6
515,1	2194,8
515,6	2153,8
516	2162,4
516,5	2115,8
516,9	2135,6
517,4	2088,2
517,8	2115,2
518,3	2089
518,7	2062,4
519,2	2037,6
519,6	2040,4
520,1	2003,2
520,5	2010,8
521	2021
521,4	1969,2
521,9	1965,8
522,3	1955,2
522,8	1942
523,2	1939,6
523,7	1887,6
524,1	1889,8
524,6	1900,4
525	1873
525,5	1872,2
525,9	1854
526,4	1848,4
526,8	1858,2
527,3	1830,6
527,7	1826,4
528,2	1802,6
528,6	1807,2
529,1	1771,8
529,5	1793,6
530	1754,8
530,4	1740,6
530,9	1775,4
531,3	1737,8
531,8	1718,8
532,2	1704,6
532,6	1667,4
533,1	1680,4
533,5	1659,4
534	1685,8
534,4	1661
534,9	1652
535,3	1659,8
535,8	1629,4
536,2	1633,8
536,7	1596,4
537,1	1575
537,6	1624,2
538	1620,8
538,5	1598,6
538,9	1578,8
539,4	1557,2
539,8	1548,6
540,3	1512,2
540,7	1565,8
541,2	1533
541,6	1502
542,1	1520,6
542,5	1535,2
543	1486
543,4	1496
543,9	1468
544,3	1486,2
544,8	1514,4
545,2	1483,8
545,7	1445,4
546,1	1452,8
546,5	1432
547	1416,4
547,4	1420,8
547,9	1427,4
548,3	1424,6
548,8	1388,4
549,2	1430,2
549,7	1417,4
550,1	1402,2
550,6	1397,6
551	1393
551,5	1382
551,9	1367,4
552,4	1366,6
552,8	1333,2
553,3	1329,2
553,7	1350,8
554,2	1340,6
554,6	1331,2
555,1	1354,6
555,5	1341,8
555,9	1339,8
556,4	1315,8
556,8	1341,6
557,3	1333,8
557,7	1291,2
558,2	1311,4
558,6	1318,2
559,1	1316,4
559,5	1294,6
560	1264,4
560,4	1292,4
560,9	1275
561,3	1231,6
561,8	1269
562,2	1236,6
562,7	1246,2
563,1	1246,2
563,6	1190,8
564	1254,6
564,4	1231
564,9	1236
565,3	1252,2
565,8	1196,6
566,2	1214,2
566,7	1185
567,1	1170,8
567,6	1190,4
568	1190,8
568,5	1219
568,9	1173,4
569,4	1186,6
569,8	1169,8
570,3	1197
570,7	1186
571,1	1174,4
571,6	1150,8
572	1153,4
572,5	1117
572,9	1162,6
573,4	1101,8
573,8	1135,4
574,3	1127,6
574,7	1137,6
575,2	1135,2
575,6	1125
576,1	1119,2
576,5	1086,6
576,9	1103
577,4	1109,4
577,8	1071,2
578,3	1105,2
578,7	1109,8
579,2	1088,2
579,6	1062,2
580,1	1084,8
580,5	1073,2
581	1081,2
581,4	1050,2
581,9	1078
582,3	1023,2
582,7	1054
583,2	1036,8
583,6	1021,8
584,1	1020,6
584,5	1007,6
585	1021
585,4	1027
585,9	986
586,3	989,8
586,8	994,4
587,2	1014,6
587,6	985,6
588,1	1001,8
588,5	966,6
589	983,6
589,4	988,4
589,9	977,4
590,3	949,8
590,8	955,2
591,2	954,2
591,7	916,2
592,1	973,8
592,5	938,8
593	924,6
593,4	970,8
593,9	929,8
594,3	922,8
594,8	896,6
595,2	901,4
595,7	910,4
596,1	910,2
596,6	939,6
597	910,4
597,4	932,4
597,9	902
598,3	905
598,8	877,8
599,2	870,6
599,7	884,8
600,1	850,6
600,6	863,6
601	879,8
601,4	899,4
601,9	874
602,3	840,4
602,8	859,8
603,2	802
603,7	851
604,1	820
604,6	870
605	820,8
605,4	838
605,9	821,8
606,3	840,6
606,8	815
607,2	838,4
607,7	790,8
608,1	842,4
608,6	802,4
609	800,8
609,4	796,6
609,9	791,4
610,3	785,2
610,8	778,4
611,2	805,2
611,7	767,2
612,1	759,6
612,6	773,4
613	771,4
613,4	752,2
613,9	738
614,3	729,8
614,8	761,6
615,2	758
615,7	736,6
616,1	734,4
616,6	728,8
617	748
617,4	738,4
617,9	705,8
618,3	706,8
618,8	687,4
619,2	705,2
619,7	706,8
620,1	703,6
620,5	702,8
621	662,6
621,4	665,6
621,9	690,8
622,3	669,8
622,8	687,4
623,2	703,2
623,6	679
624,1	664
624,5	670
625	692,8
625,4	664
625,9	665
626,3	605,2
626,8	619,8
627,2	635,4
627,6	626
628,1	618
628,5	647,6
629	644,2
629,4	643,6
629,9	598,2
630,3	580
630,7	600
631,2	562,4
631,6	640,8
632,1	603,6
632,5	583,4
633	591,4
633,4	561,2
633,8	594,4
634,3	566
634,7	561,4
635,2	582
635,6	578
636,1	542
636,5	520,4
636,9	574,8
637,4	540,4
637,8	547
638,3	546,4
638,7	527
639,2	507,8
639,6	544,2
640	522,4
640,5	546,8
640,9	516
641,4	515,8
641,8	528,2
642,2	478,4
642,7	502,8
643,1	514
643,6	478,2
644	500,2
644,5	489,4
644,9	499,2
645,3	504,4
645,8	488,2
646,2	452
646,7	480
647,1	450
647,6	475,2
648	500
648,4	454,4
648,9	423,8
649,3	472,6
649,8	463,6
650,2	457,2
650,6	449,2
651,1	452,8
651,5	455,4
652	439,2
652,4	442,6
652,9	438,4
653,3	436,4
653,7	442
654,2	425,4
654,6	403
655,1	434,2
655,5	438
655,9	380
656,4	427,8
656,8	400,2
657,3	425
657,7	409,2
658,2	399,8
658,6	381,8
659	386,6
659,5	385,8
659,9	389,8
660,4	375,8
660,8	394,4
661,2	398,4
661,7	379
662,1	368,6
662,6	375,8
663	328,4
663,4	389,6
663,9	387,6
664,3	363,2
664,8	358,2
665,2	372,2
665,6	353,8
666,1	353,2
666,5	313,6
667	347,6
667,4	376,8
667,9	356,6
668,3	318,2
668,7	381,6
669,2	333,4
669,6	329,8
670,1	291
670,5	339,2
670,9	337,8
671,4	367,8
671,8	338,6
672,3	306,6
672,7	314,2
673,1	328,6
673,6	315,8
674	360,4
674,5	285,8
674,9	321,6
675,3	275,6
675,8	257,6
676,2	314
676,7	310,8
677,1	274
677,5	317,2
678	315,8
678,4	299,4
678,9	290,8
679,3	274,6
679,7	260,8
680,2	298,4
680,6	285,8
681,1	294,4
681,5	295,6
681,9	278,2
682,4	292
682,8	269,4
683,3	243,4
683,7	266,8
684,1	252
684,6	304,2
685	264,8
685,5	245,8
685,9	253,2
686,3	247,6
686,8	265,8
687,2	252,2
687,7	238,4
688,1	210,2
688,5	267,8
689	243,2
689,4	225,4
689,9	231,8
690,3	223,4
690,7	251,4
691,2	225,4
691,6	239,4
692	230,2
692,5	236,2
692,9	262,6
693,4	215,8
693,8	225
694,2	220,6
694,7	260,6
695,1	233,8
695,6	213
696	222,8
696,4	200,2
696,9	255,2
697,3	223,4
697,8	242
698,2	202,6
698,6	190,2
699,1	207
699,5	190,6
699,9	186,8
700,4	236,4
700,8	213,8
701,3	200,8
701,7	198,2
702,1	192,4
702,6	187,4
703	204,2
703,5	201,8
703,9	225,6
704,3	165,8
704,8	183,4
705,2	212,8
705,6	186,6
706,1	173,6
706,5	181,4
707	155,6
707,4	159,4
707,8	172,4
708,3	186,2
708,7	157,6
709,2	170,4
709,6	179,4
710	174,4
710,5	170
710,9	185,6
711,3	185
711,8	143,8
712,2	165
712,7	154,6
713,1	147,4
713,5	167,2
714	178,2
714,4	148
714,8	171,4
715,3	152,8
715,7	122,2
716,2	149,4
716,6	139,6
717	159,4
717,5	165,8
717,9	162,4
718,3	159,2
718,8	153,2
719,2	171
719,7	110,2
720,1	145
720,5	130
721	133,4
721,4	149,8
721,8	131,6
722,3	113,4
722,7	124
723,2	134
723,6	151,6
724	116
724,5	157,4
724,9	108,8
725,3	144,6
725,8	144,8
726,2	176,4
726,7	122,4
727,1	161,8
727,5	140
728	101,6
728,4	123,2
728,8	116
729,3	116,2
729,7	155,2
730,1	123
730,6	112,4
731	105,8
731,5	98,8
731,9	93,2
732,3	133,4
732,8	139,6
733,2	107,2
733,6	88
734,1	119,6
734,5	119,8
734,9	110,4
735,4	95,2
735,8	126,2
736,3	138,6
736,7	142,6
737,1	100
737,6	111,4
738	114,2
738,4	94,2
738,9	96,8
739,3	111,8
739,7	87
740,2	93,6
740,6	111,2
741,1	128
741,5	133,4
741,9	89,8
742,4	101,4
742,8	100,6
743,2	124,4
743,7	82,2
744,1	91,8
744,5	94,8
745	73
745,4	119
745,8	95,4
746,3	86,8
746,7	91,2
747,2	116,8
747,6	92,6
748	110,8
748,5	83,6
748,9	80,8
749,3	94,4
749,8	72,8
750,2	107,8
750,6	88,6
751,1	84,4
751,5	94,8
751,9	80,6
752,4	76,6
752,8	96,2
753,3	102,8
753,7	84
754,1	82,4
754,6	91,2
755	100,6
755,4	80,6
755,9	88,8
756,3	67,6
756,7	53,6
757,2	78
757,6	81,4
758	71,8
758,5	44,4
758,9	61,6
759,3	89,8
759,8	75
760,2	93,2
760,6	87,2
761,1	57,8
761,5	63,8
761,9	109,4
762,4	103,4
762,8	52,8
763,3	73,2
763,7	89,2
764,1	100,8
764,6	67,2
765	88,4
765,4	69,8
765,9	72,6
766,3	90,8
766,7	61,4
767,2	53,4
767,6	78,2
768	80,4
768,5	57
768,9	57,8
769,3	70
769,8	34,4
770,2	78,2
770,6	92,6
771,1	48
771,5	107,8
771,9	61,2
772,4	70,6
772,8	74,8
773,2	95,8
773,7	30,2
774,1	40,4
774,5	84,2
775	74,8
775,4	86,8
775,8	56,6
776,3	65,6
776,7	73,2
777,1	33,4
777,6	41,2
778	82,4
778,4	69,8
778,9	55,4
779,3	27,2
779,7	24,8
780,2	62
780,6	40,6
781	61
781,5	62,8
781,9	58,2
782,3	75,6
782,8	71,8
783,2	53,2
783,6	43,6
784,1	81
784,5	49,6
784,9	73,4
785,4	36,2
785,8	19,2
786,2	59,4
786,7	12
787,1	62
787,5	23,8
788	30
788,4	39
788,8	35,2
789,3	34,4
789,7	60,8
790,1	49
790,6	57
791	30,6
791,4	42,2
791,9	49,4
792,3	66,4
792,7	50,8
793,2	75
793,6	38,4
794	47,8
794,5	73,2
794,9	35,4
795,3	53
795,8	17
796,2	25
796,6	44,6
797,1	54,2
797,5	30,2
797,9	44,6
798,4	42
798,8	53,4
799,2	56,8
799,7	43,2
800,1	80,6
800,5	54,8
801	35,4
801,4	67
801,8	45,6
802,2	45
802,7	22,6
803,1	55,4
803,5	28,8
804	48,8
804,4	59
804,8	23
805,3	19,4
805,7	7,8
806,1	37,4
806,6	53
807	31,2
807,4	18,8
807,9	43,6
808,3	46
808,7	45,2
809,2	24,8
809,6	21,2
810	54
810,4	21,8
810,9	23,2
811,3	47,8
811,7	52,4
812,2	13,4
812,6	33,2
813	46,4
813,5	50,8
813,9	25,6
814,3	1,8
814,8	46
815,2	41
815,6	32,2
816,1	21,2
816,5	17,2
816,9	19,8
817,3	47,2
817,8	9,2
818,2	-0
818,6	26,2
819,1	31,2
819,5	28,6
819,9	25,2
820,4	16,8
820,8	45,2
821,2	10,4
821,7	24
822,1	45,8
822,5	27,6
822,9	26,2
823,4	61,8
823,8	44,4
824,2	37,2
824,7	44
825,1	16
825,5	24
826	31
826,4	39,4
826,8	33,8
827,3	43,6
827,7	-3,4
828,1	13,2
828,5	45,4
829	21,4
829,4	54,6
829,8	21
830,3	-1,2
830,7	14,8
831,1	20
831,6	49,6
832	50,2
832,4	26,8
832,8	35,8
833,3	11,2
833,7	41,2
834,1	17,4
834,6	8
835	17,2
835,4	20,8
835,8	65,6
836,3	29,2
836,7	49,4
837,1	36,4
837,6	9,2
838	50,4
838,4	21,6
838,9	25,6
839,3	43
839,7	12,6
840,1	33,6
840,6	53,2
841	6,6
841,4	38,6
841,9	14,4
842,3	17,4
842,7	26
843,1	17,6
843,6	5,8
844	30,6
844,4	22
844,9	23,8
845,3	33,8
845,7	15,8
846,2	18,6
846,6	39,8
847	27,8
847,4	25,4
847,9	25,4
848,3	21,6
848,7	21,6
849,2	14,6
849,6	12
850	24,8
850,4	62,6
850,9	19,6
851,3	38
851,7	31,2
852,2	39,4
852,6	1,2
853	9
853,4	35,8
853,9	-9,2
854,3	3,8
854,7	13,6
855,2	-3,8
855,6	-9
856	44,4
856,4	25,4
856,9	28,4
857,3	18,6
857,7	33,2
858,2	22,6
858,6	48,2
859	12
859,4	-13,8
859,9	-0,4
860,3	19
860,7	15,8
861,1	37,2
861,6	16
862	17,6
862,4	21
862,9	-9
863,3	11,4
863,7	24,6
864,1	10,4
864,6	3
865	41,6
865,4	-1,2
865,9	14,8
866,3	4
866,7	31,2
867,1	16
867,6	26,2
868	21,6
868,4	7,6
868,8	15,6
869,3	21,8
869,7	7,6
870,1	-0,8
870,6	-3,6
871	12
871,4	21,6
871,8	29,8
872,3	145,2
872,7	5,8
873,1	42,8
873,5	11,2
874	37,2
874,4	8
874,8	19,2
875,3	14,6
875,7	-1,8
876,1	20,8
876,5	29,8
877	19
877,4	36,4
877,8	24,2
878,2	15
878,7	4,4
879,1	6,2
879,5	60,2
879,9	8,6
880,4	14,4
880,8	31,2
881,2	18
881,7	19,6
882,1	3,2
882,5	25
882,9	11,6
883,4	1,4
883,8	-3
884,2	6,8
884,6	-11,8
885,1	2,6
885,5	13,6
885,9	-13,4
886,3	14,6
886,8	22,6
887,2	0,2
887,6	25,6
888	9,6
888,5	11,6
888,9	27
889,3	9
889,8	26
890,2	11
890,6	0,8
891	15,6
891,5	-1,8
891,9	15,8
892,3	37
892,7	5,4
893,2	14,2
893,6	21,8
894	-3,4
894,4	-2,6
894,9	16,2
895,3	-14,4
895,7	23,8
896,1	39,2
896,6	12,4
897	10,4
897,4	10,4
897,8	-5,2
898,3	4,8
898,7	8,8
899,1	11,8
899,5	18,6
900	23,4
900,4	6,2
900,8	-2
901,2	6,2
901,7	9
902,1	14,2
902,5	3,4
902,9	10,8
903,4	3
903,8	13,4
904,2	17,6
904,6	-10,4
905,1	-15,8
905,5	6,4
905,9	-30
906,3	24,4
906,8	-8
907,2	13,6
907,6	-17,2
908	-4,8
908,5	-8,8
908,9	-6,6
909,3	-9,4
909,7	-2,8
910,2	16,8
910,6	-10,8
911	17,2
911,4	-5,4
911,9	-12,6
912,3	3,4
912,7	28
913,1	29
913,6	-5
914	1,8
914,4	6,2
914,8	4,8
915,3	21,8
915,7	-2
916,1	24,2
916,5	14,4
916,9	15,4
917,4	-0,8
917,8	11,2
918,2	27,6
918,6	-4,2
919,1	-1,4
919,5	-5,4
919,9	-5,8
920,3	23,6
920,8	17,2
921,2	-30
921,6	-17,6
922	21,8
922,5	-10,8
922,9	13,6
923,3	-3,4
923,7	53,2
924,2	5
924,6	18,6
925	2,4
925,4	9
925,8	-8
926,3	-27,2
926,7	-9
927,1	-10,8
927,5	-15,2
928	-8,8
928,4	-11,4
928,8	-7,2
929,2	0,6
929,7	4,6
930,1	14,4
930,5	-7
930,9	1,4
931,3	-12,4
931,8	20,2
932,2	25,8
932,6	-8,2
933	7,2
933,5	14,8
933,9	10,2
934,3	9
934,7	14,8
935,2	4,6
935,6	-7,6
936	-7
936,4	-10,8
936,8	-2,4
937,3	2,4
937,7	-16,6
938,1	38,2
938,5	-10
939	2,4
939,4	6,6
939,8	18,8
940,2	6,6
940,6	8,8
941,1	20,4
941,5	17,8
941,9	-15,2
942,3	10,4
942,8	18
943,2	17,2
943,6	-5,4
944	-14,8
944,4	-8,2
944,9	-4,8
945,3	-5,8
945,7	4
946,1	-7,4
946,6	6,4
947	-31,6
947,4	8,6
947,8	-13,8
948,2	20
948,7	7,6
949,1	4,2
949,5	5,8
949,9	-9,2
950,3	-0,8
950,8	19,4
951,2	-0,8
951,6	-4,6
952	5
952,5	-0,8
952,9	15,4
953,3	2,2
953,7	22
954,1	27,6
954,6	15,8
955	5,2
955,4	11
955,8	24,4
956,2	21,6
956,7	3,2
957,1	30,2
957,5	7,8
957,9	12
958,3	5,4
958,8	-13,4
959,2	12,2
959,6	13
960	9,4
960,5	31,8
960,9	-14,8
961,3	7
961,7	-5
962,1	10,4
962,6	-1,8
963	6,6
963,4	-0,4
963,8	25,8
964,2	25,2
964,7	9,8
965,1	28
965,5	-0
965,9	20,4
966,3	-12,6
966,8	-7
967,2	0,4
967,6	-2,2
968	6,2
968,4	-4
968,9	9,2
969,3	3,4
969,7	-23,4
970,1	-4,4
970,5	-12,6
971	17,2
971,4	-23,4
971,8	-3,2
972,2	-15
972,6	-3,4
973,1	-39,4
973,5	-5
973,9	8,2
974,3	12,2
974,7	23,6
975,2	24
975,6	4,2
976	9,2
976,4	-3,4
976,8	42,4
977,3	3,6
977,7	27,4
978,1	12
978,5	-13,6
978,9	24,8
979,4	15,2
979,8	23,6
980,2	26
980,6	4,6
981	14,8
981,5	23,2
981,9	28,4
982,3	23,8
982,7	-2,8
983,1	1,6
983,6	-3,2
984	-4,2
984,4	15,2
984,8	-6,2
985,2	-41,4
985,6	-2
986,1	-13
986,5	-20,4
986,9	35,4
987,3	7
987,7	-12,2
988,2	-11,4
988,6	9,2
989	18,2
989,4	-3,6
989,8	-2
990,3	-0,2
990,7	17,4
991,1	21,8
991,5	39,6
991,9	-17,4
992,3	14
992,8	3,4
993,2	8,4
993,6	24
994	11
994,4	-20
994,9	-34
995,3	-4
995,7	-22
996,1	33,2
996,5	-7,8
996,9	24,6
997,4	13,4
997,8	-0
998,2	-29
998,6	-16,4
999	35,6
999,5	10,4
999,9	16
1000,3	-7
1000,7	7,8
1001,1	-32,2
1001,5	-15,6
1002	22,2
1002,4	-3,4
1002,8	5,2
1003,2	-15,4
1003,6	-11,2
1004	1
1004,5	32,6
1004,9	9,8
1005,3	12,4
1005,7	-7
1006,1	-7,8
1006,6	10,8
1007	-20,8
1007,4	-0,6
1007,8	4
1008,2	4
1008,6	-11
1009,1	8,8
1009,5	4,2
1009,9	3,2
1010,3	-0
1010,7	-1
1011,1	25
1011,6	-11
1012	-1,8
1012,4	-10,4
1012,8	-2,4
1013,2	9,2
1013,6	-10,6
1014,1	30,4
1014,5	25,2
1014,9	17
1015,3	-3,8
1015,7	4,6
1016,1	-15,6
1016,6	-4,2
1017	-1,4
1017,4	-10,8
1017,8	7,2
1018,2	7,6
1018,6	6,6
1019,1	8,6
1019,5	26,4
1019,9	22
1020,3	29,2
1020,7	9
1021,1	0,6
1021,6	7,2
1022	-2,6
1022,4	11,8
1022,8	24,4
1023,2	6,8
1023,6	-17,4
1024,1	-23,8
1024,5	-7
1024,9	-0,4
1025,3	29,8
1025,7	-23
1026,1	-11,8
1026,6	4
1027	-13,6
1027,4	19,4
1027,8	-11,2
1028,2	16,8
1028,6	23,2
1029	31,2
1029,5	15,2
1029,9	30,8
1030,3	6
1030,7	12,4
1031,1	-7,4
1031,5	5,2
1032	11,8
1032,4	27,8
1032,8	-13,6
1033,2	39,4
1033,6	28,6
1034	10,2
1034,4	-10
1034,9	12,8
1035,3	7
1035,7	8
1036,1	-0,8
1036,5	44,8
1036,9	21,6
1037,4	-3,6
1037,8	0
1038,2	-6,2
1038,6	13,8
1039	18,8
1039,4	14,4
1039,8	-11,2
1040,3	16,6
1040,7	25,6
1041,1	22,6
1041,5	-3,4
1041,9	-0,2
1042,3	13,6
1042,7	-5,8
1043,2	9,8
1043,6	-0,4
1044	0,2
1044,4	24
1044,8	-0,6
1045,2	-19,8
1045,6	14
1046,1	8,2
1046,5	7,8
1046,9	-3,4
1047,3	1
1047,7	-46,6
1048,1	23
1048,5	38,4
1049	2,2
1049,4	-6,6
1049,8	-8,4
1050,2	33,8
1050,6	6,6
1051	-33,4
1051,4	-9
1051,9	6,8
1052,3	4
1052,7	-12,4
1053,1	-21,2
1053,5	24,2
1053,9	-2,2
1054,3	-19
1054,8	-4,2
1055,2	2,4
1055,6	-23,4
1056	2,8
1056,4	-20,4
1056,8	-1
1057,2	-20
1057,6	15,8
1058,1	6,6
1058,5	22,6
1058,9	7,6
1059,3	9,4
1059,7	-12,6
1060,1	5,6
1060,5	-38
1061	21
1061,4	29,2
1061,8	18,4
1062,2	-36
1062,6	-10,4
1063	-9,6
1063,4	47,8
1063,8	-15
1064,3	17
1064,7	-13,4
1065,1	12,2
1065,5	-9
1065,9	7,4
1066,3	-2,2
1066,7	6
1067,1	-12,4
1067,6	-10,4
1068	5,8
1068,4	32,4
1068,8	2,2
1069,2	17,8
1069,6	-24,6
1070	10,4
1070,4	-26
1070,9	8,2
1071,3	6,8
1071,7	17,6
1072,1	-20,8
1072,5	-19,6
1072,9	4,6
1073,3	48,2
1073,7	38,6
1074,2	7,4
1074,6	-17
1075	-3,4
1075,4	23,8
1075,8	-4
1076,2	6,6
1076,6	2,4
1077	8,6
1077,5	16,4
1077,9	4
1078,3	0,4
1078,7	20,8
1079,1	-1,4
1079,5	11,4
1079,9	35,8
1080,3	26,4
1080,7	25,6
1081,2	30,8
1081,6	3,2
1082	23,2
1082,4	15,4
1082,8	-8,4
1083,2	-12,4
1083,6	16,2
1084	-3,2
1084,5	-14,2
1084,9	23,8
1085,3	24,6
1085,7	0,6
1086,1	16,8
1086,5	13,8
1086,9	7,6
1087,3	-37
1087,7	-2,2
1088,2	3
1088,6	0,2
1089	-26,8
1089,4	2,2
1089,8	0,8
1090,2	9,2
1090,6	12,4
1091	-36,8
1091,4	6,6
1091,9	-1,8
1092,3	1,8
1092,7	9
1093,1	7,6
1093,5	-32,2
1093,9	3,6
1094,3	19,8
1094,7	3,8
1095,1	-21,4
1095,5	6,6
1096	26,8
1096,4	57,2
1096,8	-11,8
1097,2	9,6
1097,6	6,4
1098	-11
1098,4	8,4
1098,8	-4,8
1099,2	5,6
1099,6	3,2
1100,1	10,8
1100,5	22,4
1100,9	-3,8
1101,3	-3
1101,7	9,8
1102,1	-0,4
1102,5	17
1102,9	10,8
1103,3	8,4
1103,7	4,6
1104,2	-3
1104,6	27
1105	-15,2
1105,4	7,8
1105,8	-11
1106,2	3,6
1106,6	-5,2
1107	-1,2
1107,4	-1,8
1107,8	4,4
1108,3	-2
