Data from Subt2_00037.txt Node
Date: Wed Aug 02 19:44:15 MSK 2023
User: vat
Spectrometer: MAYP114033
Trigger mode: 0
Integration Time (sec): 7,000000E-1
Scans to average: 5
Electric dark correction enabled: true
Nonlinearity correction enabled: false
Boxcar width: 0
XAxis mode: Wavelengths
Number of Pixels in Spectrum: 2068
>>>>>Begin Spectral Data<<<<<
199,4	2,033
199,9	-0,967
200,4	0,033
200,8	1,433
201,3	1,833
201,8	-2,167
202,2	0,233
202,7	-4,967
203,2	8,033
203,6	-2,567
204,1	18,633
204,6	9,433
205	4,833
205,5	15,033
206	13,233
206,4	34,033
206,9	20,033
207,4	33,633
207,8	28,433
208,3	27,033
208,8	-2,367
209,2	6,433
209,7	-5,767
210,2	25,033
210,6	9,033
211,1	1,233
211,5	18,033
212	-14,567
212,5	-5,167
212,9	6,233
213,4	16,833
213,9	-7,567
214,3	1,633
214,8	7,033
215,3	-6,367
215,7	7,433
216,2	-0,967
216,7	-19,367
217,1	-2,567
217,6	5,233
218,1	10,633
218,5	27,633
219	-17,367
219,5	-0,367
219,9	5,633
220,4	13,033
220,9	15,833
221,3	34,633
221,8	25,433
222,3	18,433
222,7	14,233
223,2	4,233
223,6	-10,767
224,1	11,033
224,6	19,633
225	21,833
225,5	4,233
226	7,033
226,4	-3,567
226,9	-5,367
227,4	21,433
227,8	16,633
228,3	16,833
228,8	16,633
229,2	13,433
229,7	42,433
230,2	8,433
230,6	12,433
231,1	13,633
231,5	-9,967
232	-5,167
232,5	0,033
232,9	3,033
233,4	-13,567
233,9	26,633
234,3	1,433
234,8	25,033
235,3	21,233
235,7	9,033
236,2	-12,567
236,7	-4,167
237,1	35,833
237,6	9,833
238,1	12,433
238,5	33,033
239	-18,167
239,4	-27,167
239,9	3,233
240,4	-11,567
240,8	-2,967
241,3	-1,567
241,8	24,833
242,2	-10,167
242,7	7,833
243,2	19,833
243,6	15,233
244,1	4,633
244,6	17,433
245	-17,767
245,5	3,233
245,9	17,633
246,4	19,633
246,9	-9,567
247,3	19,833
247,8	-14,567
248,3	-6,767
248,7	-12,767
249,2	22,433
249,7	13,833
250,1	19,033
250,6	27,633
251	4,433
251,5	26,633
252	-10,167
252,4	-9,167
252,9	2,433
253,4	0,433
253,8	-15,567
254,3	13,833
254,8	17,233
255,2	3,433
255,7	18,833
256,1	-6,967
256,6	26,433
257,1	-2,967
257,5	-31,367
258	30,033
258,5	3,433
258,9	18,833
259,4	13,233
259,9	33,033
260,3	-11,567
260,8	8,833
261,2	35,033
261,7	-11,167
262,2	14,833
262,6	-6,367
263,1	33,433
263,6	-29,167
264	-7,767
264,5	28,633
264,9	22,633
265,4	11,433
265,9	-8,967
266,3	-9,167
266,8	10,233
267,3	14,633
267,7	-1,167
268,2	1,433
268,7	-11,967
269,1	17,233
269,6	5,833
270	-33,767
270,5	21,233
271	22,833
271,4	1,233
271,9	25,633
272,4	-29,567
272,8	-27,767
273,3	27,033
273,7	27,033
274,2	13,233
274,7	-23,367
275,1	-13,767
275,6	-10,167
276,1	-15,167
276,5	28,233
277	-2,567
277,4	7,633
277,9	10,233
278,4	9,633
278,8	13,833
279,3	13,633
279,8	19,433
280,2	29,033
280,7	4,833
281,1	-7,167
281,6	-10,167
282,1	0,433
282,5	3,433
283	-11,767
283,4	-3,967
283,9	18,033
284,4	19,233
284,8	-4,367
285,3	-10,367
285,8	-1,567
286,2	6,833
286,7	9,433
287,1	23,033
287,6	23,433
288,1	31,033
288,5	-7,967
289	6,433
289,5	20,233
289,9	-3,767
290,4	36,033
290,8	3,033
291,3	-2,367
291,8	-1,967
292,2	-13,967
292,7	3,633
293,1	6,033
293,6	-2,367
294,1	10,833
294,5	17,833
295	-16,567
295,5	7,833
295,9	23,633
296,4	4,833
296,8	11,833
297,3	18,033
297,8	0,033
298,2	25,033
298,7	-15,767
299,1	7,233
299,6	8,833
300,1	0,033
300,5	16,233
301	23,433
301,5	-0,767
301,9	-0,567
302,4	-37,567
302,8	-6,167
303,3	0,033
303,8	15,433
304,2	15,833
304,7	1,233
305,1	-15,367
305,6	45,633
306,1	6,433
306,5	8,233
307	2,833
307,4	5,233
307,9	-16,767
308,4	12,433
308,8	-25,167
309,3	8,833
309,8	21,433
310,2	0,433
310,7	29,833
311,1	15,633
311,6	31,233
312,1	3,433
312,5	10,433
313	-5,967
313,4	5,033
313,9	-0,967
314,4	-2,367
314,8	20,433
315,3	-19,767
315,7	21,233
316,2	7,233
316,7	13,433
317,1	11,633
317,6	9,233
318	11,033
318,5	18,433
319	18,433
319,4	0,833
319,9	12,633
320,3	10,833
320,8	13,433
321,3	19,033
321,7	26,433
322,2	20,033
322,6	-9,767
323,1	9,033
323,6	8,833
324	13,233
324,5	-11,367
324,9	-6,367
325,4	-3,167
325,9	16,233
326,3	-6,967
326,8	30,033
327,2	2,833
327,7	8,033
328,2	7,033
328,6	31,833
329,1	23,433
329,5	0,033
330	6,433
330,5	1,033
330,9	10,633
331,4	23,033
331,8	-9,367
332,3	4,433
332,8	17,433
333,2	-22,367
333,7	16,433
334,1	15,833
334,6	13,033
335,1	-9,567
335,5	35,233
336	24,833
336,4	41,033
336,9	-3,167
337,4	-6,567
337,8	20,833
338,3	4,033
338,7	-9,567
339,2	-17,367
339,7	18,033
340,1	-3,967
340,6	-0,567
341	-7,967
341,5	10,033
342	13,433
342,4	24,633
342,9	37,433
343,3	34,433
343,8	13,633
344,2	31,033
344,7	31,833
345,2	22,433
345,6	23,033
346,1	-17,567
346,5	-7,967
347	-11,767
347,5	8,233
347,9	27,233
348,4	-11,767
348,8	3,233
349,3	14,433
349,8	-8,367
350,2	-0,967
350,7	32,633
351,1	26,233
351,6	9,233
352	36,633
352,5	1,433
353	17,433
353,4	15,033
353,9	44,233
354,3	18,633
354,8	41,833
355,3	36,233
355,7	46,633
356,2	38,833
356,6	62,033
357,1	42,833
357,5	94,833
358	73,233
358,5	68,433
358,9	104,433
359,4	151,033
359,8	169,833
360,3	166,233
360,8	192,233
361,2	240,033
361,7	212,833
362,1	291,433
362,6	320,833
363	358,833
363,5	392,633
364	456,633
364,4	502,833
364,9	528,033
365,3	597,833
365,8	614,633
366,3	668,433
366,7	728,833
367,2	751,233
367,6	801,633
368,1	794,033
368,5	836,633
369	854,433
369,5	826,233
369,9	821,233
370,4	833,033
370,8	800,633
371,3	754,433
371,7	744,433
372,2	739,033
372,7	680,233
373,1	653,833
373,6	605,033
374	600,233
374,5	531,633
374,9	505,433
375,4	495,033
375,9	398,033
376,3	404,833
376,8	386,433
377,2	358,833
377,7	313,633
378,2	327,233
378,6	252,033
379,1	249,433
379,5	236,833
380	191,433
380,4	173,433
380,9	194,233
381,4	140,633
381,8	144,033
382,3	121,633
382,7	124,433
383,2	130,633
383,6	116,433
384,1	94,233
384,6	83,033
385	91,033
385,5	80,833
385,9	98,833
386,4	80,433
386,8	71,433
387,3	52,433
387,7	78,033
388,2	66,833
388,7	57,633
389,1	45,633
389,6	62,633
390	38,433
390,5	35,633
390,9	42,233
391,4	68,833
391,9	25,233
392,3	70,833
392,8	22,033
393,2	20,433
393,7	57,633
394,1	30,833
394,6	18,433
395,1	30,633
395,5	24,233
396	9,433
396,4	22,633
396,9	8,033
397,3	50,833
397,8	39,633
398,2	43,033
398,7	29,233
399,2	30,433
399,6	5,633
400,1	14,033
400,5	33,233
401	0,433
401,4	23,033
401,9	32,833
402,4	20,433
402,8	22,033
403,3	10,833
403,7	40,433
404,2	31,833
404,6	32,833
405,1	41,833
405,5	20,233
406	32,433
406,5	38,633
406,9	52,833
407,4	40,433
407,8	33,233
408,3	25,233
408,7	21,633
409,2	38,833
409,6	43,033
410,1	57,433
410,6	54,433
411	72,833
411,5	58,233
411,9	28,433
412,4	70,833
412,8	58,633
413,3	80,433
413,7	78,033
414,2	71,433
414,7	54,633
415,1	72,633
415,6	33,033
416	64,233
416,5	93,433
416,9	97,233
417,4	78,433
417,8	108,833
418,3	125,433
418,8	90,033
419,2	111,833
419,7	118,033
420,1	124,833
420,6	143,433
421	149,633
421,5	182,633
421,9	150,433
422,4	163,433
422,8	183,833
423,3	168,033
423,8	178,833
424,2	198,033
424,7	198,233
425,1	210,233
425,6	208,433
426	232,433
426,5	258,033
426,9	268,633
427,4	232,633
427,9	305,033
428,3	293,433
428,8	319,633
429,2	326,633
429,7	318,633
430,1	352,233
430,6	405,633
431	377,833
431,5	388,433
431,9	413,833
432,4	444,033
432,8	459,833
433,3	504,033
433,8	537,633
434,2	551,833
434,7	545,833
435,1	580,033
435,6	633,833
436	687,833
436,5	653,233
436,9	681,833
437,4	766,433
437,8	773,233
438,3	819,233
438,8	829,033
439,2	880,433
439,7	908,633
440,1	951,833
440,6	981,233
441	1034,833
441,5	1098,433
441,9	1105,233
442,4	1190,633
442,8	1234,433
443,3	1290,833
443,7	1278,833
444,2	1352,233
444,7	1422,233
445,1	1459,233
445,6	1524,633
446	1578,633
446,5	1657,433
446,9	1682,833
447,4	1743,233
447,8	1832,033
448,3	1894,833
448,7	1944,833
449,2	2018,633
449,6	2070,033
450,1	2123,833
450,6	2194,833
451	2290,833
451,5	2336,433
451,9	2425,233
452,4	2488,033
452,8	2563,633
453,3	2629,633
453,7	2691,233
454,2	2817,233
454,6	2845,633
455,1	2927,833
455,5	3019,833
456	3082,633
456,4	3134,033
456,9	3253,833
457,3	3324,833
457,8	3403,833
458,3	3479,033
458,7	3516,033
459,2	3627,033
459,6	3703,633
460,1	3823,433
460,5	3872,233
461	3920,633
461,4	4009,433
461,9	4134,433
462,3	4177,833
462,8	4267,633
463,2	4318,833
463,7	4415,833
464,1	4491,633
464,6	4611,033
465	4620,433
465,5	4686,033
466	4763,033
466,4	4892,833
466,9	4907,433
467,3	4993,633
467,8	5057,233
468,2	5155,633
468,7	5210,433
469,1	5304,033
469,6	5352,233
470	5450,833
470,5	5488,233
470,9	5563,433
471,4	5602,633
471,8	5641,433
472,3	5743,033
472,7	5765,833
473,2	5817,433
473,6	5894,433
474,1	5881,833
474,5	5964,433
475	6002,433
475,4	6117,233
475,9	6063,633
476,4	6171,233
476,8	6211,633
477,3	6217,833
477,7	6350,633
478,2	6347,833
478,6	6340,033
479,1	6411,833
479,5	6420,633
480	6440,033
480,4	6447,033
480,9	6557,633
481,3	6504,233
481,8	6527,633
482,2	6558,233
482,7	6578,033
483,1	6557,233
483,6	6645,433
484	6602,633
484,5	6671,233
484,9	6661,433
485,4	6709,033
485,8	6658,033
486,3	6665,633
486,7	6635,033
487,2	6637,033
487,6	6678,433
488,1	6672,833
488,5	6677,833
489	6680,033
489,4	6691,433
489,9	6660,833
490,4	6658,633
490,8	6612,033
491,3	6565,433
491,7	6604,233
492,2	6521,033
492,6	6579,833
493,1	6488,433
493,5	6506,233
494	6484,633
494,4	6444,433
494,9	6403,833
495,3	6454,833
495,8	6386,633
496,2	6354,833
496,7	6300,033
497,1	6311,833
497,6	6249,833
498	6232,833
498,5	6205,233
498,9	6191,833
499,4	6124,633
499,8	6127,633
500,3	6066,433
500,7	6039,233
501,2	6023,233
501,6	5977,433
502,1	5923,833
502,5	5868,433
503	5858,633
503,4	5824,633
503,9	5818,033
504,3	5781,833
504,8	5722,033
505,2	5689,033
505,7	5644,633
506,1	5636,233
506,6	5571,633
507	5489,433
507,5	5452,833
507,9	5411,233
508,4	5339,833
508,8	5330,833
509,3	5260,433
509,7	5242,633
510,2	5175,633
510,6	5141,633
511,1	5096,033
511,5	5057,633
512	5050,633
512,4	4994,433
512,9	4906,433
513,3	4889,033
513,8	4784,033
514,2	4785,033
514,7	4768,433
515,1	4669,433
515,6	4626,233
516	4575,033
516,5	4550,633
516,9	4528,233
517,4	4460,033
517,8	4415,433
518,3	4359,833
518,7	4284,033
519,2	4273,833
519,6	4201,433
520,1	4196,833
520,5	4135,033
521	4067,633
521,4	4020,433
521,9	4006,433
522,3	3943,433
522,8	3915,233
523,2	3840,233
523,7	3797,433
524,1	3776,033
524,6	3702,633
525	3719,433
525,5	3631,633
525,9	3616,833
526,4	3578,433
526,8	3484,033
527,3	3486,633
527,7	3406,033
528,2	3415,233
528,6	3351,233
529,1	3293,633
529,5	3251,833
530	3232,833
530,4	3184,433
530,9	3159,833
531,3	3103,633
531,8	3037,433
532,2	3055,433
532,6	2978,233
533,1	2950,233
533,5	2917,833
534	2881,233
534,4	2844,633
534,9	2836,433
535,3	2773,833
535,8	2788,633
536,2	2702,633
536,7	2643,233
537,1	2641,233
537,6	2583,833
538	2548,833
538,5	2532,233
538,9	2491,433
539,4	2477,033
539,8	2466,833
540,3	2418,433
540,7	2337,233
541,2	2355,033
541,6	2272,433
542,1	2287,033
542,5	2242,833
543	2208,033
543,4	2203,833
543,9	2155,233
544,3	2161,433
544,8	2120,433
545,2	2105,633
545,7	2071,833
546,1	2046,433
546,5	1989,233
547	2042,233
547,4	1938,833
547,9	1937,433
548,3	1884,033
548,8	1890,033
549,2	1875,033
549,7	1819,233
550,1	1843,833
550,6	1795,033
551	1785,433
551,5	1744,833
551,9	1686,833
552,4	1678,233
552,8	1675,433
553,3	1675,433
553,7	1653,833
554,2	1641,633
554,6	1580,433
555,1	1610,433
555,5	1563,233
555,9	1536,833
556,4	1503,033
556,8	1530,433
557,3	1501,433
557,7	1487,033
558,2	1420,033
558,6	1443,433
559,1	1407,033
559,5	1404,033
560	1396,033
560,4	1378,433
560,9	1306,633
561,3	1333,033
561,8	1282,433
562,2	1300,233
562,7	1311,433
563,1	1286,433
563,6	1285,033
564	1238,633
564,4	1180,633
564,9	1202,033
565,3	1195,233
565,8	1180,833
566,2	1180,033
566,7	1160,633
567,1	1163,833
567,6	1120,033
568	1105,033
568,5	1099,433
568,9	1089,233
569,4	1079,633
569,8	1065,033
570,3	1056,233
570,7	1051,633
571,1	1022,433
571,6	1010,633
572	1011,233
572,5	1010,433
572,9	987,433
573,4	956,433
573,8	925,633
574,3	916,633
574,7	933,233
575,2	902,833
575,6	909,233
576,1	905,233
576,5	882,233
576,9	865,433
577,4	866,233
577,8	853,433
578,3	832,633
578,7	807,233
579,2	859,633
579,6	790,033
580,1	766,033
580,5	812,033
581	765,433
581,4	777,233
581,9	770,233
582,3	743,433
582,7	757,433
583,2	722,233
583,6	731,833
584,1	714,833
584,5	725,633
585	696,633
585,4	700,233
585,9	716,633
586,3	690,833
586,8	680,633
587,2	655,233
587,6	682,433
588,1	666,233
588,5	668,633
589	622,233
589,4	626,433
589,9	630,833
590,3	613,633
590,8	590,833
591,2	592,033
591,7	607,633
592,1	592,033
592,5	600,433
593	585,433
593,4	588,233
593,9	581,433
594,3	539,433
594,8	562,033
595,2	545,033
595,7	562,633
596,1	567,633
596,6	534,833
597	528,033
597,4	521,233
597,9	533,633
598,3	539,233
598,8	510,833
599,2	493,833
599,7	500,833
600,1	531,833
600,6	488,033
601	501,833
601,4	506,433
601,9	473,233
602,3	479,633
602,8	485,633
603,2	510,033
603,7	466,433
604,1	445,233
604,6	457,233
605	429,433
605,4	456,633
605,9	457,033
606,3	459,233
606,8	443,033
607,2	432,233
607,7	433,033
608,1	446,233
608,6	402,833
609	409,433
609,4	401,033
609,9	385,833
610,3	399,433
610,8	390,633
611,2	429,633
611,7	363,633
612,1	441,633
612,6	378,633
613	407,633
613,4	416,633
613,9	379,033
614,3	395,033
614,8	386,633
615,2	374,633
615,7	316,033
616,1	365,433
616,6	367,233
617	364,233
617,4	331,633
617,9	328,433
618,3	371,233
618,8	338,633
619,2	346,433
619,7	320,033
620,1	324,433
620,5	342,833
621	353,433
621,4	370,833
621,9	326,233
622,3	317,033
622,8	290,433
623,2	325,233
623,6	316,433
624,1	300,233
624,5	290,433
625	324,633
625,4	302,433
625,9	304,633
626,3	341,033
626,8	315,233
627,2	273,633
627,6	298,433
628,1	311,033
628,5	264,633
629	303,233
629,4	271,633
629,9	288,233
630,3	284,033
630,7	275,633
631,2	313,233
631,6	288,033
632,1	245,833
632,5	288,633
633	254,833
633,4	291,833
633,8	254,633
634,3	283,033
634,7	267,033
635,2	233,033
635,6	251,233
636,1	252,833
636,5	243,033
636,9	244,433
637,4	270,433
637,8	238,833
638,3	217,033
638,7	238,033
639,2	243,233
639,6	243,033
640	253,033
640,5	226,233
640,9	250,633
641,4	220,633
641,8	230,033
642,2	203,833
642,7	231,233
643,1	238,033
643,6	220,633
644	246,233
644,5	229,233
644,9	225,633
645,3	266,433
645,8	224,833
646,2	188,233
646,7	206,233
647,1	191,433
647,6	215,633
648	218,233
648,4	215,833
648,9	186,633
649,3	201,633
649,8	217,433
650,2	201,833
650,6	220,433
651,1	216,233
651,5	206,433
652	216,833
652,4	190,833
652,9	193,633
653,3	214,833
653,7	193,433
654,2	231,833
654,6	215,833
655,1	201,633
655,5	208,033
655,9	210,033
656,4	198,233
656,8	192,633
657,3	177,233
657,7	187,033
658,2	172,033
658,6	184,433
659	182,233
659,5	187,233
659,9	158,633
660,4	199,633
660,8	155,233
661,2	199,033
661,7	220,033
662,1	206,633
662,6	166,033
663	172,233
663,4	188,033
663,9	197,233
664,3	206,433
664,8	172,433
665,2	196,033
665,6	175,033
666,1	153,633
666,5	179,833
667	160,033
667,4	182,033
667,9	177,033
668,3	141,433
668,7	174,433
669,2	145,033
669,6	160,433
670,1	137,633
670,5	122,433
670,9	131,433
671,4	186,033
671,8	164,833
672,3	147,833
672,7	170,233
673,1	145,033
673,6	135,633
674	158,833
674,5	140,233
674,9	137,633
675,3	138,833
675,8	160,633
676,2	156,433
676,7	165,233
677,1	139,833
677,5	144,233
678	146,633
678,4	131,233
678,9	146,233
679,3	148,433
679,7	138,233
680,2	149,033
680,6	171,233
681,1	164,633
681,5	154,233
681,9	169,833
682,4	128,833
682,8	126,433
683,3	136,833
683,7	112,033
684,1	127,033
684,6	111,433
685	137,033
685,5	159,033
685,9	127,833
686,3	108,233
686,8	122,033
687,2	126,233
687,7	136,433
688,1	121,433
688,5	126,433
689	88,833
689,4	117,033
689,9	117,633
690,3	122,833
690,7	104,033
691,2	107,033
691,6	112,833
692	162,433
692,5	107,233
692,9	121,033
693,4	129,233
693,8	105,233
694,2	124,433
694,7	108,633
695,1	134,433
695,6	142,233
696	115,833
696,4	122,033
696,9	128,033
697,3	105,233
697,8	100,433
698,2	135,633
698,6	106,033
699,1	122,633
699,5	111,833
699,9	109,833
700,4	110,633
700,8	108,433
701,3	124,233
701,7	69,033
702,1	112,633
702,6	107,633
703	112,433
703,5	107,833
703,9	100,633
704,3	101,833
704,8	111,233
705,2	138,033
705,6	66,633
706,1	82,833
706,5	112,633
707	101,833
707,4	87,233
707,8	124,633
708,3	114,433
708,7	115,033
709,2	98,433
709,6	139,233
710	109,033
710,5	100,433
710,9	99,033
711,3	86,433
711,8	101,433
712,2	123,433
712,7	76,033
713,1	119,833
713,5	79,633
714	98,033
714,4	120,233
714,8	100,833
715,3	76,833
715,7	84,233
716,2	102,833
716,6	79,233
717	78,233
717,5	98,633
717,9	65,833
718,3	59,433
718,8	75,433
719,2	93,433
719,7	83,033
720,1	81,433
720,5	95,033
721	99,833
721,4	103,233
721,8	101,033
722,3	79,433
722,7	83,033
723,2	82,233
723,6	39,633
724	78,633
724,5	88,433
724,9	69,433
725,3	68,633
725,8	75,233
726,2	83,633
726,7	62,633
727,1	94,033
727,5	61,233
728	56,233
728,4	99,033
728,8	52,833
729,3	72,633
729,7	89,033
730,1	74,233
730,6	64,633
731	47,833
731,5	44,033
731,9	91,433
732,3	72,633
732,8	67,033
733,2	82,633
733,6	103,033
734,1	84,633
734,5	99,833
734,9	65,233
735,4	58,233
735,8	86,833
736,3	59,433
736,7	101,233
737,1	99,633
737,6	63,833
738	43,433
738,4	68,433
738,9	82,233
739,3	96,233
739,7	64,033
740,2	78,233
740,6	69,433
741,1	82,833
741,5	80,833
741,9	59,233
742,4	60,433
742,8	43,433
743,2	91,033
743,7	60,233
744,1	62,633
744,5	41,633
745	81,833
745,4	54,433
745,8	77,433
746,3	76,033
746,7	76,233
747,2	32,433
747,6	49,033
748	51,833
748,5	73,233
748,9	75,033
749,3	69,833
749,8	73,233
750,2	67,633
750,6	96,433
751,1	47,833
751,5	68,433
751,9	52,433
752,4	45,233
752,8	35,033
753,3	66,233
753,7	45,033
754,1	68,833
754,6	79,633
755	34,233
755,4	56,633
755,9	77,033
756,3	35,633
756,7	53,033
757,2	64,633
757,6	45,633
758	75,233
758,5	44,833
758,9	66,233
759,3	46,233
759,8	66,033
760,2	67,833
760,6	46,033
761,1	26,433
761,5	57,033
761,9	58,033
762,4	52,633
762,8	64,033
763,3	30,033
763,7	76,233
764,1	62,033
764,6	39,233
765	47,833
765,4	48,833
765,9	54,833
766,3	29,633
766,7	70,033
767,2	40,433
767,6	34,033
768	92,433
768,5	65,633
768,9	76,433
769,3	54,233
769,8	69,033
770,2	28,833
770,6	64,233
771,1	72,633
771,5	32,033
771,9	41,033
772,4	57,633
772,8	77,233
773,2	49,433
773,7	47,033
774,1	54,033
774,5	41,433
775	32,033
775,4	55,833
775,8	55,833
776,3	60,233
776,7	19,033
777,1	39,633
777,6	30,433
778	19,433
778,4	76,033
778,9	50,633
779,3	47,433
779,7	43,833
780,2	53,433
780,6	36,433
781	73,833
781,5	40,633
781,9	69,033
782,3	72,633
782,8	82,033
783,2	40,833
783,6	50,433
784,1	80,433
784,5	26,633
784,9	48,633
785,4	36,833
785,8	31,233
786,2	55,433
786,7	25,233
787,1	70,033
787,5	31,633
788	19,833
788,4	81,633
788,8	32,833
789,3	44,033
789,7	62,433
790,1	52,233
790,6	34,833
791	45,233
791,4	48,433
791,9	69,233
792,3	53,033
792,7	46,833
793,2	46,633
793,6	39,433
794	60,033
794,5	19,633
794,9	61,633
795,3	27,833
795,8	22,033
796,2	45,233
796,6	30,833
797,1	50,233
797,5	54,633
797,9	68,633
798,4	47,633
798,8	30,233
799,2	38,633
799,7	73,833
800,1	5,233
800,5	32,433
801	38,233
801,4	41,633
801,8	41,833
802,2	44,633
802,7	29,633
803,1	35,033
803,5	45,433
804	40,633
804,4	54,233
804,8	37,633
805,3	46,433
805,7	54,033
806,1	23,233
806,6	58,633
807	20,633
807,4	14,033
807,9	32,433
808,3	26,433
808,7	23,433
809,2	31,833
809,6	51,233
810	11,633
810,4	16,633
810,9	58,233
811,3	19,033
811,7	36,433
812,2	25,833
812,6	37,833
813	46,633
813,5	16,633
813,9	48,833
814,3	20,433
814,8	25,433
815,2	61,233
815,6	28,433
816,1	22,833
816,5	30,433
816,9	15,633
817,3	18,233
817,8	34,633
818,2	31,033
818,6	37,433
819,1	57,833
819,5	43,433
819,9	69,633
820,4	2,633
820,8	13,433
821,2	35,233
821,7	17,433
822,1	31,633
822,5	66,033
822,9	42,633
823,4	5,233
823,8	49,233
824,2	25,433
824,7	19,633
825,1	33,433
825,5	2,233
826	33,433
826,4	36,433
826,8	24,033
827,3	32,433
827,7	25,033
828,1	50,033
828,5	34,033
829	31,033
829,4	41,833
829,8	47,633
830,3	10,233
830,7	21,233
831,1	31,033
831,6	10,833
832	18,433
832,4	21,633
832,8	21,433
833,3	48,433
833,7	22,833
834,1	44,833
834,6	-0,767
835	34,633
835,4	31,233
835,8	20,233
836,3	22,033
836,7	22,833
837,1	47,633
837,6	-4,967
838	9,433
838,4	34,633
838,9	18,033
839,3	32,033
839,7	27,033
840,1	-5,567
840,6	58,033
841	53,233
841,4	10,633
841,9	12,633
842,3	27,433
842,7	15,633
843,1	21,033
843,6	26,833
844	6,233
844,4	22,433
844,9	9,833
845,3	20,633
845,7	15,633
846,2	23,833
846,6	33,433
847	17,233
847,4	3,633
847,9	22,033
848,3	24,433
848,7	63,033
849,2	28,633
849,6	30,633
850	5,833
850,4	-0,767
850,9	23,033
851,3	49,833
851,7	29,233
852,2	28,233
852,6	27,633
853	26,033
853,4	5,633
853,9	20,833
854,3	32,033
854,7	8,033
855,2	24,633
855,6	5,033
856	-5,767
856,4	32,833
856,9	33,233
857,3	-14,167
857,7	37,433
858,2	20,833
858,6	10,633
859	17,633
859,4	27,033
859,9	30,433
860,3	2,633
860,7	15,033
861,1	38,033
861,6	35,433
862	29,433
862,4	24,233
862,9	-1,967
863,3	9,433
863,7	7,833
864,1	13,633
864,6	-2,567
865	27,833
865,4	32,633
865,9	30,633
866,3	5,633
866,7	22,033
867,1	-1,167
867,6	4,633
868	30,433
868,4	22,633
868,8	-10,167
869,3	14,433
869,7	5,433
870,1	1,633
870,6	27,233
871	22,233
871,4	50,033
871,8	3,833
872,3	-147,967
872,7	9,033
873,1	-11,367
873,5	37,433
874	16,833
874,4	13,233
874,8	24,433
875,3	48,033
875,7	9,833
876,1	23,633
876,5	24,233
877	-13,567
877,4	23,033
877,8	15,833
878,2	39,233
878,7	9,033
879,1	-15,567
879,5	16,433
879,9	28,033
880,4	34,033
880,8	0,433
881,2	-2,767
881,7	17,233
882,1	7,833
882,5	1,833
882,9	16,433
883,4	42,833
883,8	33,433
884,2	3,033
884,6	20,833
885,1	21,833
885,5	0,633
885,9	45,833
886,3	0,433
886,8	-4,367
887,2	2,633
887,6	29,233
888	29,833
888,5	10,633
888,9	-12,367
889,3	2,433
889,8	-9,967
890,2	21,633
890,6	-2,767
891	30,433
891,5	27,033
891,9	12,433
892,3	23,833
892,7	-10,967
893,2	10,433
893,6	19,833
894	30,633
894,4	30,433
894,9	28,433
895,3	25,633
895,7	3,233
896,1	-5,367
896,6	16,433
897	6,433
897,4	21,433
897,8	-9,167
898,3	-0,367
898,7	-12,167
899,1	16,233
899,5	15,233
900	11,233
900,4	32,033
900,8	-1,167
901,2	19,633
901,7	6,633
902,1	7,033
902,5	2,633
902,9	11,833
903,4	13,033
903,8	-1,167
904,2	-1,367
904,6	29,033
905,1	20,233
905,5	8,833
905,9	39,033
906,3	4,033
906,8	10,233
907,2	34,033
907,6	-11,567
908	2,033
908,5	-3,567
908,9	-0,967
909,3	37,033
909,7	11,033
910,2	7,433
910,6	2,033
911	17,233
911,4	21,833
911,9	-0,367
912,3	0,833
912,7	28,233
913,1	9,833
913,6	23,833
914	0,033
914,4	0,633
914,8	3,833
915,3	17,233
915,7	-18,167
916,1	2,233
916,5	-12,167
916,9	9,833
917,4	6,433
917,8	-3,367
918,2	13,633
918,6	32,033
919,1	4,033
919,5	-28,167
919,9	37,633
920,3	13,033
920,8	-20,167
921,2	23,433
921,6	-0,167
922	6,833
922,5	8,233
922,9	23,433
923,3	2,433
923,7	2,433
924,2	15,233
924,6	30,233
925	-0,767
925,4	2,433
925,8	14,433
926,3	16,433
926,7	19,233
927,1	17,433
927,5	19,033
928	-11,767
928,4	3,233
928,8	23,833
929,2	29,033
929,7	-8,967
930,1	-13,367
930,5	-2,967
930,9	7,633
931,3	1,633
931,8	-6,167
932,2	31,033
932,6	15,233
933	9,833
933,5	4,833
933,9	23,833
934,3	16,233
934,7	4,633
935,2	34,633
935,6	-4,567
936	37,433
936,4	15,633
936,8	-8,367
937,3	0,033
937,7	16,033
938,1	2,033
938,5	-7,767
939	20,233
939,4	-1,567
939,8	30,633
940,2	-8,767
940,6	16,233
941,1	-3,167
941,5	9,633
941,9	-10,567
942,3	-5,167
942,8	-3,367
943,2	5,233
943,6	8,233
944	38,433
944,4	15,233
944,9	22,033
945,3	34,233
945,7	-9,767
946,1	26,633
946,6	2,033
947	40,833
947,4	-5,167
947,8	33,033
948,2	-5,167
948,7	16,433
949,1	21,633
949,5	2,033
949,9	11,033
950,3	-22,967
950,8	23,433
951,2	4,633
951,6	-16,167
952	40,033
952,5	10,433
952,9	-14,567
953,3	2,633
953,7	31,033
954,1	4,633
954,6	1,033
955	23,433
955,4	30,033
955,8	-41,767
956,2	42,233
956,7	0,833
957,1	-14,167
957,5	13,433
957,9	2,233
958,3	-22,567
958,8	-4,367
959,2	-6,967
959,6	25,833
960	30,033
960,5	3,033
960,9	5,233
961,3	-0,967
961,7	6,633
962,1	15,433
962,6	7,233
963	16,033
963,4	10,233
963,8	6,633
964,2	-7,167
964,7	-8,767
965,1	2,033
965,5	2,433
965,9	11,033
966,3	21,833
966,8	-6,767
967,2	11,033
967,6	0,433
968	-19,167
968,4	-5,767
968,9	19,633
969,3	15,233
969,7	12,833
970,1	4,833
970,5	-10,167
971	-2,767
971,4	11,233
971,8	9,833
972,2	4,233
972,6	10,633
973,1	14,033
973,5	21,633
973,9	-12,367
974,3	3,033
974,7	-6,567
975,2	8,433
975,6	12,833
976	-3,567
976,4	-2,167
976,8	-7,767
977,3	1,833
977,7	6,633
978,1	8,033
978,5	35,233
978,9	-8,367
979,4	-6,567
979,8	7,033
980,2	24,033
980,6	35,233
981	-20,167
981,5	-12,167
981,9	1,033
982,3	26,033
982,7	2,233
983,1	-12,567
983,6	-4,967
984	25,833
984,4	0,033
984,8	15,233
985,2	6,033
985,6	5,033
986,1	-10,967
986,5	0,233
986,9	-1,367
987,3	-14,767
987,7	-1,367
988,2	3,833
988,6	-6,367
989	17,233
989,4	-29,767
989,8	14,633
990,3	15,633
990,7	-12,367
991,1	12,833
991,5	4,833
991,9	28,233
992,3	-14,167
992,8	23,033
993,2	18,033
993,6	8,033
994	-18,967
994,4	4,433
994,9	22,433
995,3	7,033
995,7	4,233
996,1	10,233
996,5	15,433
996,9	19,633
997,4	27,833
997,8	24,833
998,2	-24,167
998,6	17,233
999	-5,767
999,5	-9,967
999,9	0,833
1000,3	2,833
1000,7	1,833
1001,1	-10,167
1001,5	32,033
1002	9,433
1002,4	0,233
1002,8	18,233
1003,2	-7,967
1003,6	-2,967
1004	-11,367
1004,5	-10,367
1004,9	16,033
1005,3	-3,967
1005,7	1,833
1006,1	-16,167
1006,6	-23,167
1007	35,633
1007,4	19,433
1007,8	28,033
1008,2	15,033
1008,6	5,033
1009,1	14,033
1009,5	7,433
1009,9	9,233
1010,3	-24,167
1010,7	-4,367
1011,1	-12,567
1011,6	24,233
1012	-12,967
1012,4	-5,967
1012,8	16,033
1013,2	36,633
1013,6	9,633
1014,1	1,833
1014,5	19,833
1014,9	3,033
1015,3	6,433
1015,7	-11,167
1016,1	-18,767
1016,6	22,433
1017	9,033
1017,4	13,033
1017,8	4,233
1018,2	5,233
1018,6	-10,167
1019,1	-3,167
1019,5	-1,367
1019,9	5,633
1020,3	44,833
1020,7	26,033
1021,1	0,633
1021,6	-0,967
1022	-6,367
1022,4	27,433
1022,8	2,433
1023,2	-23,767
1023,6	13,233
1024,1	14,633
1024,5	-24,567
1024,9	17,633
1025,3	-14,367
1025,7	-7,567
1026,1	17,833
1026,6	-8,767
1027	-5,567
1027,4	15,233
1027,8	49,033
1028,2	-11,367
1028,6	15,833
1029	-9,167
1029,5	34,633
1029,9	6,433
1030,3	-8,567
1030,7	36,433
1031,1	-9,767
1031,5	-13,367
1032	-3,767
1032,4	-9,167
1032,8	-10,567
1033,2	11,233
1033,6	6,033
1034	9,833
1034,4	4,033
1034,9	12,833
1035,3	18,033
1035,7	-18,967
1036,1	8,033
1036,5	-16,367
1036,9	14,633
1037,4	31,633
1037,8	31,033
1038,2	21,033
1038,6	21,233
1039	-6,367
1039,4	23,833
1039,8	16,633
1040,3	11,033
1040,7	6,033
1041,1	-13,367
1041,5	39,833
1041,9	13,633
1042,3	-2,567
1042,7	11,433
1043,2	-5,767
1043,6	-6,167
1044	17,833
1044,4	4,833
1044,8	22,433
1045,2	49,033
1045,6	-14,767
1046,1	-13,767
1046,5	-8,567
1046,9	45,233
1047,3	25,433
1047,7	23,033
1048,1	18,433
1048,5	-18,567
1049	14,633
1049,4	1,433
1049,8	16,633
1050,2	-4,167
1050,6	-14,567
1051	32,033
1051,4	0,033
1051,9	-4,567
1052,3	6,233
1052,7	13,833
1053,1	27,633
1053,5	-2,967
1053,9	24,633
1054,3	35,233
1054,8	13,233
1055,2	-6,167
1055,6	2,233
1056	24,833
1056,4	-6,767
1056,8	29,633
1057,2	20,433
1057,6	-6,567
1058,1	-28,967
1058,5	31,633
1058,9	21,033
1059,3	-1,367
1059,7	4,033
1060,1	22,233
1060,5	0,233
1061	-27,767
1061,4	0,833
1061,8	14,633
1062,2	3,433
1062,6	23,233
1063	-3,367
1063,4	9,833
1063,8	-31,967
1064,3	11,633
1064,7	17,033
1065,1	-4,167
1065,5	3,033
1065,9	13,433
1066,3	6,833
1066,7	-32,167
1067,1	16,833
1067,6	-7,567
1068	0,633
1068,4	-17,167
1068,8	-28,967
1069,2	-7,967
1069,6	-2,367
1070	-1,767
1070,4	-7,167
1070,9	2,033
1071,3	-1,167
1071,7	-7,367
1072,1	21,833
1072,5	3,233
1072,9	-2,167
1073,3	-7,967
1073,7	-8,567
1074,2	-9,567
1074,6	28,033
1075	1,233
1075,4	21,833
1075,8	-3,767
1076,2	1,433
1076,6	14,633
1077	-9,367
1077,5	9,233
1077,9	8,633
1078,3	-31,767
1078,7	-8,967
1079,1	-4,567
1079,5	3,233
1079,9	6,833
1080,3	8,633
1080,7	-0,767
1081,2	7,633
1081,6	5,433
1082	-12,767
1082,4	10,833
1082,8	17,233
1083,2	10,633
1083,6	17,633
1084	10,433
1084,5	39,033
1084,9	8,233
1085,3	3,233
1085,7	-16,567
1086,1	-1,767
1086,5	21,433
1086,9	18,433
1087,3	17,833
1087,7	8,033
1088,2	9,433
1088,6	13,633
1089	13,033
1089,4	-12,567
1089,8	-2,967
1090,2	22,033
1090,6	2,233
1091	12,433
1091,4	1,833
1091,9	-13,367
1092,3	-25,767
1092,7	12,033
1093,1	-15,767
1093,5	-26,967
1093,9	15,833
1094,3	-9,567
1094,7	40,433
1095,1	14,233
1095,5	-1,167
1096	19,233
1096,4	-1,167
1096,8	30,633
1097,2	-20,767
1097,6	40,033
1098	15,633
1098,4	10,433
1098,8	-2,967
1099,2	0,033
1099,6	6,033
1100,1	-0,167
1100,5	-23,567
1100,9	15,233
1101,3	11,633
1101,7	13,033
1102,1	-5,167
1102,5	13,833
1102,9	0,833
1103,3	10,033
1103,7	-12,567
1104,2	5,233
1104,6	-5,167
1105	7,433
1105,4	-4,167
1105,8	6,233
1106,2	6,233
1106,6	16,633
1107	1,633
1107,4	-1,967
1107,8	-0,367
1108,3	-0,767
