Data from Subt2_00039.txt Node
Date: Wed Aug 02 19:47:10 MSK 2023
User: vat
Spectrometer: MAYP114033
Trigger mode: 0
Integration Time (sec): 7,000000E-1
Scans to average: 5
Electric dark correction enabled: true
Nonlinearity correction enabled: false
Boxcar width: 0
XAxis mode: Wavelengths
Number of Pixels in Spectrum: 2068
>>>>>Begin Spectral Data<<<<<
199,4	2,067
199,9	2,067
200,4	0,067
200,8	-1,933
201,3	4,267
201,8	4,667
202,2	-31,333
202,7	31,267
203,2	10,067
203,6	0,267
204,1	30,267
204,6	24,267
205	25,667
205,5	21,867
206	44,467
206,4	27,867
206,9	33,467
207,4	33,667
207,8	32,067
208,3	13,867
208,8	8,867
209,2	21,867
209,7	9,667
210,2	25,867
210,6	24,867
211,1	25,467
211,5	3,667
212	-5,933
212,5	12,667
212,9	4,067
213,4	23,667
213,9	36,667
214,3	24,467
214,8	59,667
215,3	6,467
215,7	21,467
216,2	16,067
216,7	1,667
217,1	3,467
217,6	7,667
218,1	10,867
218,5	11,467
219	19,067
219,5	15,467
219,9	21,067
220,4	23,267
220,9	5,667
221,3	40,867
221,8	3,467
222,3	22,667
222,7	17,867
223,2	24,467
223,6	12,867
224,1	23,667
224,6	42,467
225	34,867
225,5	15,467
226	26,067
226,4	-8,933
226,9	12,267
227,4	24,067
227,8	24,267
228,3	30,467
228,8	38,467
229,2	35,267
229,7	53,667
230,2	0,667
230,6	-2,733
231,1	31,467
231,5	1,067
232	1,667
232,5	27,667
232,9	8,667
233,4	16,867
233,9	3,467
234,3	-0,333
234,8	37,667
235,3	36,067
235,7	14,267
236,2	0,667
236,7	31,467
237,1	25,267
237,6	15,667
238,1	20,067
238,5	45,067
239	-11,133
239,4	-8,533
239,9	6,867
240,4	-13,533
240,8	-6,333
241,3	17,067
241,8	11,067
242,2	20,267
242,7	16,867
243,2	18,067
243,6	16,267
244,1	7,667
244,6	48,667
245	-1,533
245,5	28,867
245,9	15,867
246,4	36,867
246,9	-8,533
247,3	15,867
247,8	-8,133
248,3	3,467
248,7	7,667
249,2	25,867
249,7	35,267
250,1	32,467
250,6	33,467
251	27,067
251,5	21,067
252	29,067
252,4	-6,333
252,9	11,467
253,4	30,267
253,8	2,067
254,3	29,267
254,8	9,467
255,2	31,667
255,7	21,267
256,1	8,467
256,6	15,267
257,1	16,667
257,5	-19,733
258	44,467
258,5	3,667
258,9	24,067
259,4	30,667
259,9	26,067
260,3	11,467
260,8	3,867
261,2	21,867
261,7	5,267
262,2	-3,933
262,6	14,867
263,1	33,267
263,6	2,067
264	28,867
264,5	37,067
264,9	45,267
265,4	40,867
265,9	15,867
266,3	15,467
266,8	2,067
267,3	30,467
267,7	4,867
268,2	-23,733
268,7	41,267
269,1	30,867
269,6	35,667
270	-1,733
270,5	9,467
271	32,467
271,4	0,467
271,9	-4,133
272,4	-3,733
272,8	-5,333
273,3	30,667
273,7	29,267
274,2	13,467
274,7	-13,933
275,1	4,467
275,6	-10,133
276,1	19,267
276,5	13,667
277	5,267
277,4	2,667
277,9	17,667
278,4	-0,733
278,8	31,267
279,3	8,467
279,8	18,467
280,2	39,867
280,7	8,267
281,1	41,667
281,6	-20,733
282,1	25,467
282,5	41,267
283	11,467
283,4	9,067
283,9	37,067
284,4	12,467
284,8	0,867
285,3	11,867
285,8	26,067
286,2	15,667
286,7	11,667
287,1	17,467
287,6	24,867
288,1	43,467
288,5	27,467
289	-13,533
289,5	23,467
289,9	9,467
290,4	28,067
290,8	19,267
291,3	19,867
291,8	15,067
292,2	-3,133
292,7	24,267
293,1	1,067
293,6	2,467
294,1	41,667
294,5	17,067
295	-14,733
295,5	7,867
295,9	21,267
296,4	18,867
296,8	-10,333
297,3	17,667
297,8	-2,933
298,2	35,867
298,7	7,267
299,1	4,667
299,6	-1,133
300,1	8,867
300,5	13,067
301	31,867
301,5	-6,933
301,9	31,067
302,4	-17,933
302,8	11,267
303,3	18,067
303,8	33,067
304,2	29,867
304,7	40,267
305,1	6,867
305,6	19,667
306,1	10,667
306,5	24,467
307	17,667
307,4	15,067
307,9	16,067
308,4	-0,533
308,8	0,067
309,3	23,667
309,8	39,067
310,2	2,667
310,7	32,667
311,1	28,867
311,6	35,067
312,1	19,867
312,5	26,067
313	42,867
313,4	10,067
313,9	16,267
314,4	25,667
314,8	20,467
315,3	6,267
315,7	19,667
316,2	45,267
316,7	23,667
317,1	21,467
317,6	44,667
318	22,667
318,5	-0,333
319	20,067
319,4	13,867
319,9	17,867
320,3	18,467
320,8	37,267
321,3	20,867
321,7	26,867
322,2	8,467
322,6	7,867
323,1	8,067
323,6	22,867
324	9,067
324,5	0,467
324,9	29,267
325,4	5,467
325,9	9,667
326,3	-22,533
326,8	29,267
327,2	18,667
327,7	37,267
328,2	20,867
328,6	27,667
329,1	14,067
329,5	33,067
330	30,267
330,5	30,867
330,9	42,467
331,4	13,867
331,8	4,067
332,3	15,667
332,8	44,867
333,2	5,067
333,7	23,067
334,1	28,867
334,6	17,867
335,1	23,467
335,5	28,467
336	21,467
336,4	41,467
336,9	43,267
337,4	24,867
337,8	41,067
338,3	24,867
338,7	34,467
339,2	-3,133
339,7	43,067
340,1	-16,333
340,6	35,867
341	12,267
341,5	19,867
342	33,667
342,4	32,067
342,9	46,867
343,3	67,467
343,8	30,267
344,2	29,467
344,7	61,867
345,2	49,667
345,6	21,267
346,1	13,867
346,5	38,667
347	33,867
347,5	28,067
347,9	16,667
348,4	19,867
348,8	20,067
349,3	20,467
349,8	11,067
350,2	31,867
350,7	39,867
351,1	45,067
351,6	32,467
352	39,667
352,5	28,067
353	29,867
353,4	55,667
353,9	29,667
354,3	29,467
354,8	57,867
355,3	36,267
355,7	49,667
356,2	47,867
356,6	31,667
357,1	54,467
357,5	95,467
358	64,467
358,5	74,667
358,9	50,267
359,4	104,267
359,8	127,267
360,3	120,267
360,8	118,067
361,2	125,467
361,7	146,667
362,1	165,867
362,6	197,267
363	256,867
363,5	256,867
364	270,267
364,4	308,667
364,9	333,667
365,3	356,267
365,8	412,267
366,3	404,867
366,7	446,867
367,2	484,867
367,6	489,067
368,1	515,667
368,5	522,667
369	544,267
369,5	546,067
369,9	540,667
370,4	544,467
370,8	540,667
371,3	506,867
371,7	517,667
372,2	519,267
372,7	489,267
373,1	466,867
373,6	492,267
374	447,267
374,5	436,667
374,9	451,067
375,4	453,667
375,9	388,667
376,3	452,667
376,8	422,667
377,2	411,467
377,7	401,867
378,2	412,667
378,6	415,467
379,1	427,267
379,5	428,867
380	418,067
380,4	445,467
380,9	481,267
381,4	485,467
381,8	560,067
382,3	579,067
382,7	597,867
383,2	640,067
383,6	725,467
384,1	712,467
384,6	801,467
385	798,867
385,5	857,267
385,9	923,667
386,4	1005,667
386,8	1047,267
387,3	1152,667
387,7	1198,867
388,2	1285,067
388,7	1352,667
389,1	1458,467
389,6	1559,267
390	1654,667
390,5	1786,667
390,9	1853,067
391,4	2004,267
391,9	2103,067
392,3	2264,867
392,8	2362,467
393,2	2479,467
393,7	2662,067
394,1	2801,867
394,6	2961,067
395,1	3155,867
395,5	3342,867
396	3455,667
396,4	3689,267
396,9	3869,267
397,3	4075,267
397,8	4250,267
398,2	4508,467
398,7	4681,267
399,2	4916,267
399,6	5125,267
400,1	5392,667
400,5	5679,667
401	5924,667
401,4	6195,067
401,9	6431,267
402,4	6794,867
402,8	7077,267
403,3	7365,467
403,7	7623,867
404,2	7947,267
404,6	8294,867
405,1	8582,867
405,5	8942,667
406	9302,667
406,5	9652,067
406,9	9991,467
407,4	10351,067
407,8	10770,067
408,3	11124,267
408,7	11486,867
409,2	11869,067
409,6	12294,867
410,1	12712,467
410,6	13150,067
411	13600,667
411,5	13928,867
411,9	14304,667
412,4	14793,067
412,8	15288,667
413,3	15739,667
413,7	16163,667
414,2	16609,267
414,7	17046,667
415,1	17586,667
415,6	17985,867
416	18519,067
416,5	18868,467
416,9	19518,267
417,4	19950,467
417,8	20341,467
418,3	20804,867
418,8	21329,467
419,2	21822,667
419,7	22368,267
420,1	22919,467
420,6	23374,867
421	23849,667
421,5	24484,267
421,9	24906,667
422,4	25368,267
422,8	25866,467
423,3	26293,267
423,8	26875,667
424,2	27386,467
424,7	27896,067
425,1	28441,667
425,6	28988,467
426	29458,467
426,5	29967,867
426,9	30499,067
427,4	30844,467
427,9	31321,667
428,3	31972,267
428,8	32415,667
429,2	32914,067
429,7	33423,467
430,1	33827,867
430,6	34386,867
431	34831,867
431,5	35341,667
431,9	35754,667
432,4	36231,867
432,8	36799,867
433,3	37259,467
433,8	37755,867
434,2	38147,867
434,7	38636,067
435,1	39079,267
435,6	39499,067
436	39989,667
436,5	40416,467
436,9	40784,867
437,4	41301,467
437,8	41692,267
438,3	42133,867
438,8	42549,267
439,2	42899,667
439,7	43180,667
440,1	43676,067
440,6	44123,067
441	44419,267
441,5	44710,867
441,9	45247,867
442,4	45352,267
442,8	45888,267
443,3	46093,067
443,7	46494,267
444,2	46756,867
444,7	47016,267
445,1	47426,667
445,6	47459,467
446	47915,867
446,5	48167,667
446,9	48522,067
447,4	48677,867
447,8	48910,067
448,3	49309,267
448,7	49346,867
449,2	49516,267
449,6	49692,267
450,1	49906,067
450,6	50081,667
451	50122,667
451,5	50350,667
451,9	50430,267
452,4	50572,667
452,8	50814,067
453,3	51031,267
453,7	51219,667
454,2	51244,267
454,6	51196,067
455,1	51469,667
455,5	51653,067
456	51587,667
456,4	51594,667
456,9	51611,467
457,3	51713,267
457,8	51829,667
458,3	51768,467
458,7	51923,067
459,2	52071,467
459,6	51831,867
460,1	52090,067
460,5	51986,667
461	51968,867
461,4	52041,067
461,9	51805,867
462,3	51882,067
462,8	51876,867
463,2	51824,867
463,7	51710,867
464,1	51737,267
464,6	51700,067
465	51504,267
465,5	51502,467
466	51431,867
466,4	51391,667
466,9	51274,867
467,3	51219,667
467,8	50909,867
468,2	50965,267
468,7	50759,867
469,1	50683,067
469,6	50576,667
470	50492,467
470,5	50252,667
470,9	50178,867
471,4	50105,867
471,8	49802,667
472,3	49739,467
472,7	49479,667
473,2	49261,067
473,6	49108,067
474,1	49013,467
474,5	48837,867
475	48606,467
475,4	48473,467
475,9	48260,867
476,4	48113,467
476,8	47827,067
477,3	47679,667
477,7	47463,267
478,2	47182,467
478,6	46982,267
479,1	46802,867
479,5	46524,467
480	46311,067
480,4	46014,867
480,9	45810,467
481,3	45617,867
481,8	45182,867
482,2	45115,867
482,7	44792,067
483,1	44598,867
483,6	44363,467
484	44158,267
484,5	43860,867
484,9	43450,867
485,4	43263,067
485,8	42976,867
486,3	42733,867
486,7	42367,067
487,2	42194,667
487,6	41911,467
488,1	41563,267
488,5	41333,267
489	41080,667
489,4	40789,267
489,9	40492,067
490,4	40262,467
490,8	39888,667
491,3	39645,667
491,7	39209,867
492,2	39073,067
492,6	38720,067
493,1	38371,667
493,5	38119,867
494	37835,067
494,4	37484,267
494,9	37233,067
495,3	36983,467
495,8	36594,867
496,2	36296,267
496,7	36111,667
497,1	35844,267
497,6	35487,467
498	35125,867
498,5	34957,667
498,9	34671,267
499,4	34459,867
499,8	34152,667
500,3	33893,867
500,7	33656,867
501,2	33323,267
501,6	33113,067
502,1	32829,667
502,5	32554,667
503	32291,867
503,4	32000,067
503,9	31775,267
504,3	31511,267
504,8	31157,467
505,2	30971,267
505,7	30736,267
506,1	30471,867
506,6	30222,067
507	29936,667
507,5	29618,867
507,9	29319,067
508,4	29075,267
508,8	28820,667
509,3	28600,667
509,7	28392,267
510,2	28122,867
510,6	27928,067
511,1	27621,867
511,5	27326,067
512	27160,867
512,4	26863,667
512,9	26516,867
513,3	26288,067
513,8	26117,867
514,2	25730,067
514,7	25554,267
515,1	25380,467
515,6	25012,867
516	24895,267
516,5	24601,667
516,9	24292,867
517,4	24144,867
517,8	23832,067
518,3	23653,067
518,7	23314,267
519,2	23177,867
519,6	22845,667
520,1	22629,267
520,5	22412,667
521	22247,067
521,4	21929,667
521,9	21749,067
522,3	21515,667
522,8	21275,667
523,2	21118,467
523,7	20790,267
524,1	20623,067
524,6	20378,467
525	20229,467
525,5	19961,067
525,9	19738,867
526,4	19611,867
526,8	19398,067
527,3	19146,067
527,7	18984,467
528,2	18704,267
528,6	18578,467
529,1	18293,267
529,5	18168,667
530	17995,867
530,4	17756,467
530,9	17570,067
531,3	17380,867
531,8	17193,467
532,2	16958,867
532,6	16776,467
533,1	16613,467
533,5	16523,667
534	16269,667
534,4	16125,267
534,9	15853,467
535,3	15716,667
535,8	15509,067
536,2	15338,267
536,7	15227,467
537,1	14985,467
537,6	14826,067
538	14636,867
538,5	14536,467
538,9	14349,067
539,4	14150,267
539,8	13981,267
540,3	13799,467
540,7	13605,667
541,2	13534,467
541,6	13430,067
542,1	13252,467
542,5	13107,067
543	12931,667
543,4	12840,667
543,9	12621,067
544,3	12464,267
544,8	12369,267
545,2	12218,467
545,7	12032,267
546,1	11928,067
546,5	11766,667
547	11643,067
547,4	11505,467
547,9	11329,867
548,3	11226,867
548,8	11117,467
549,2	10976,467
549,7	10864,267
550,1	10693,467
550,6	10536,667
551	10460,267
551,5	10313,867
551,9	10244,067
552,4	10073,267
552,8	10009,667
553,3	9873,267
553,7	9762,467
554,2	9695,067
554,6	9519,667
555,1	9424,667
555,5	9290,267
555,9	9246,867
556,4	9074,667
556,8	8977,867
557,3	8898,467
557,7	8756,267
558,2	8686,667
558,6	8531,267
559,1	8514,067
559,5	8381,867
560	8266,267
560,4	8199,467
560,9	8027,667
561,3	7980,867
561,8	7898,267
562,2	7821,867
562,7	7732,467
563,1	7680,267
563,6	7531,467
564	7436,867
564,4	7332,267
564,9	7319,267
565,3	7176,267
565,8	7094,267
566,2	7007,867
566,7	6912,467
567,1	6879,867
567,6	6797,667
568	6662,067
568,5	6629,067
568,9	6553,267
569,4	6438,067
569,8	6368,267
570,3	6235,267
570,7	6242,267
571,1	6129,467
571,6	6056,467
572	5966,667
572,5	5888,067
572,9	5828,067
573,4	5737,267
573,8	5653,667
574,3	5604,467
574,7	5518,467
575,2	5474,867
575,6	5423,667
576,1	5385,267
576,5	5303,067
576,9	5207,867
577,4	5139,467
577,8	5069,867
578,3	5050,267
578,7	4933,067
579,2	4939,867
579,6	4852,067
580,1	4796,867
580,5	4737,067
581	4639,267
581,4	4640,267
581,9	4552,867
582,3	4510,267
582,7	4462,267
583,2	4333,067
583,6	4347,467
584,1	4260,467
584,5	4217,067
585	4116,067
585,4	4095,467
585,9	4080,067
586,3	4009,467
586,8	3948,667
587,2	3854,667
587,6	3837,067
588,1	3853,267
588,5	3723,067
589	3659,667
589,4	3661,467
589,9	3590,267
590,3	3546,067
590,8	3496,067
591,2	3474,067
591,7	3456,667
592,1	3417,267
592,5	3333,467
593	3329,267
593,4	3312,667
593,9	3263,867
594,3	3197,467
594,8	3163,067
595,2	3152,667
595,7	3108,467
596,1	3088,867
596,6	3024,867
597	2977,467
597,4	2922,667
597,9	2918,067
598,3	2861,467
598,8	2866,267
599,2	2830,667
599,7	2752,667
600,1	2739,267
600,6	2677,067
601	2680,067
601,4	2673,267
601,9	2629,467
602,3	2567,867
602,8	2561,067
603,2	2550,667
603,7	2477,667
604,1	2441,867
604,6	2443,467
605	2397,867
605,4	2347,267
605,9	2338,667
606,3	2292,267
606,8	2308,067
607,2	2248,667
607,7	2245,467
608,1	2246,667
608,6	2157,867
609	2155,067
609,4	2144,867
609,9	2072,867
610,3	2099,467
610,8	2044,267
611,2	2022,467
611,7	1981,267
612,1	1983,667
612,6	1942,867
613	1971,867
613,4	1943,667
613,9	1866,267
614,3	1885,667
614,8	1857,867
615,2	1823,267
615,7	1763,667
616,1	1763,267
616,6	1740,067
617	1732,867
617,4	1668,067
617,9	1654,467
618,3	1676,067
618,8	1638,467
619,2	1621,667
619,7	1586,467
620,1	1580,467
620,5	1565,267
621	1538,867
621,4	1541,267
621,9	1493,467
622,3	1474,467
622,8	1480,467
623,2	1482,667
623,6	1446,067
624,1	1400,667
624,5	1393,467
625	1383,267
625,4	1356,467
625,9	1346,267
626,3	1342,867
626,8	1311,267
627,2	1272,267
627,6	1298,067
628,1	1251,067
628,5	1245,467
629	1254,067
629,4	1208,267
629,9	1210,267
630,3	1180,867
630,7	1148,267
631,2	1170,267
631,6	1117,467
632,1	1117,467
632,5	1135,867
633	1105,867
633,4	1109,267
633,8	1029,867
634,3	1049,867
634,7	1020,267
635,2	1018,467
635,6	1002,067
636,1	1007,667
636,5	995,667
636,9	959,267
637,4	948,267
637,8	933,867
638,3	940,667
638,7	946,467
639,2	931,867
639,6	904,467
640	882,667
640,5	874,667
640,9	882,667
641,4	842,667
641,8	865,467
642,2	806,467
642,7	833,467
643,1	842,267
643,6	795,667
644	781,867
644,5	818,667
644,9	786,067
645,3	778,667
645,8	761,267
646,2	750,267
646,7	752,267
647,1	725,467
647,6	686,667
648	728,067
648,4	747,467
648,9	714,867
649,3	700,467
649,8	668,267
650,2	662,067
650,6	690,067
651,1	686,067
651,5	683,667
652	679,067
652,4	635,667
652,9	640,667
653,3	646,667
653,7	633,467
654,2	644,867
654,6	622,067
655,1	599,467
655,5	593,667
655,9	606,867
656,4	584,067
656,8	563,267
657,3	575,067
657,7	526,067
658,2	516,667
658,6	559,267
659	533,667
659,5	549,067
659,9	511,867
660,4	532,667
660,8	493,467
661,2	497,267
661,7	529,867
662,1	497,467
662,6	492,667
663	503,067
663,4	494,067
663,9	513,267
664,3	470,067
664,8	489,467
665,2	475,867
665,6	438,067
666,1	422,867
666,5	428,467
667	430,667
667,4	422,867
667,9	403,667
668,3	404,867
668,7	444,267
669,2	403,067
669,6	418,267
670,1	399,467
670,5	351,467
670,9	392,467
671,4	399,867
671,8	376,467
672,3	403,867
672,7	368,067
673,1	340,067
673,6	367,067
674	362,467
674,5	348,467
674,9	340,267
675,3	331,867
675,8	351,667
676,2	386,867
676,7	348,467
677,1	319,867
677,5	308,067
678	317,867
678,4	328,067
678,9	325,467
679,3	304,667
679,7	305,467
680,2	317,667
680,6	306,267
681,1	307,467
681,5	330,867
681,9	296,667
682,4	266,667
682,8	303,267
683,3	272,267
683,7	295,667
684,1	288,667
684,6	270,067
685	282,667
685,5	292,067
685,9	263,067
686,3	222,067
686,8	246,667
687,2	249,067
687,7	245,867
688,1	243,267
688,5	230,867
689	244,267
689,4	236,667
689,9	221,867
690,3	218,467
690,7	210,067
691,2	216,467
691,6	220,667
692	234,267
692,5	215,267
692,9	215,867
693,4	213,467
693,8	204,067
694,2	207,067
694,7	209,667
695,1	223,267
695,6	216,467
696	208,467
696,4	200,467
696,9	211,267
697,3	165,267
697,8	177,867
698,2	188,267
698,6	191,667
699,1	184,667
699,5	181,667
699,9	197,867
700,4	165,867
700,8	153,467
701,3	153,867
701,7	151,867
702,1	165,067
702,6	165,867
703	166,867
703,5	135,667
703,9	156,467
704,3	176,467
704,8	156,467
705,2	156,067
705,6	130,267
706,1	155,867
706,5	161,867
707	142,867
707,4	152,867
707,8	171,267
708,3	128,067
708,7	144,067
709,2	105,467
709,6	175,467
710	155,467
710,5	148,067
710,9	130,267
711,3	104,867
711,8	146,467
712,2	148,467
712,7	137,267
713,1	142,067
713,5	98,467
714	148,667
714,4	159,467
714,8	110,667
715,3	105,467
715,7	115,067
716,2	115,067
716,6	88,867
717	121,867
717,5	115,067
717,9	93,467
718,3	103,467
718,8	106,867
719,2	91,667
719,7	75,067
720,1	132,067
720,5	100,467
721	107,867
721,4	115,067
721,8	85,467
722,3	100,067
722,7	136,267
723,2	99,267
723,6	62,867
724	111,867
724,5	98,667
724,9	82,667
725,3	85,867
725,8	116,667
726,2	80,667
726,7	98,067
727,1	108,867
727,5	100,867
728	89,267
728,4	107,267
728,8	78,867
729,3	71,867
729,7	95,467
730,1	88,067
730,6	48,067
731	76,867
731,5	73,667
731,9	93,467
732,3	67,067
732,8	72,467
733,2	82,467
733,6	92,467
734,1	79,667
734,5	102,667
734,9	41,267
735,4	79,867
735,8	88,267
736,3	62,467
736,7	80,467
737,1	83,667
737,6	58,667
738	62,667
738,4	60,867
738,9	70,667
739,3	77,267
739,7	52,867
740,2	55,067
740,6	78,667
741,1	76,667
741,5	74,667
741,9	62,867
742,4	52,867
742,8	31,267
743,2	87,067
743,7	51,467
744,1	44,067
744,5	35,867
745	69,267
745,4	67,867
745,8	69,067
746,3	77,667
746,7	66,467
747,2	42,867
747,6	49,067
748	34,667
748,5	25,267
748,9	41,467
749,3	62,467
749,8	66,467
750,2	45,467
750,6	56,267
751,1	74,667
751,5	57,467
751,9	68,667
752,4	71,467
752,8	29,067
753,3	30,867
753,7	45,667
754,1	61,067
754,6	76,267
755	25,267
755,4	54,067
755,9	51,867
756,3	30,467
756,7	46,067
757,2	27,467
757,6	46,067
758	38,467
758,5	37,067
758,9	55,667
759,3	28,067
759,8	41,067
760,2	34,867
760,6	26,467
761,1	21,267
761,5	54,067
761,9	36,067
762,4	39,267
762,8	37,667
763,3	21,267
763,7	58,467
764,1	46,867
764,6	62,867
765	23,067
765,4	47,067
765,9	52,267
766,3	20,267
766,7	46,867
767,2	49,067
767,6	18,467
768	69,267
768,5	21,067
768,9	27,667
769,3	35,067
769,8	30,867
770,2	16,467
770,6	55,467
771,1	45,467
771,5	7,067
771,9	32,467
772,4	60,867
772,8	21,267
773,2	8,667
773,7	54,067
774,1	33,667
774,5	26,267
775	20,867
775,4	53,267
775,8	25,467
776,3	21,867
776,7	29,267
777,1	-0,133
777,6	9,267
778	5,267
778,4	9,067
778,9	20,467
779,3	31,067
779,7	21,467
780,2	37,667
780,6	8,267
781	22,267
781,5	30,067
781,9	25,067
782,3	49,667
782,8	63,667
783,2	26,467
783,6	16,867
784,1	45,267
784,5	-8,733
784,9	9,467
785,4	16,067
785,8	21,867
786,2	50,667
786,7	40,867
787,1	44,067
787,5	26,467
788	25,267
788,4	34,467
788,8	8,667
789,3	28,867
789,7	41,467
790,1	42,667
790,6	-0,533
791	42,667
791,4	39,067
791,9	36,867
792,3	33,067
792,7	43,067
793,2	6,867
793,6	10,267
794	42,467
794,5	16,467
794,9	30,467
795,3	21,067
795,8	7,267
796,2	20,267
796,6	15,267
797,1	16,067
797,5	28,067
797,9	46,667
798,4	-19,333
798,8	22,067
799,2	33,267
799,7	37,667
800,1	-11,733
800,5	23,467
801	16,867
801,4	41,867
801,8	24,067
802,2	24,267
802,7	-12,733
803,1	28,267
803,5	29,067
804	11,667
804,4	29,667
804,8	13,067
805,3	35,667
805,7	21,467
806,1	10,067
806,6	45,467
807	-1,333
807,4	12,667
807,9	4,667
808,3	28,267
808,7	14,667
809,2	9,867
809,6	29,067
810	20,267
810,4	-3,533
810,9	33,067
811,3	-16,933
811,7	29,867
812,2	6,467
812,6	31,267
813	41,267
813,5	-0,133
813,9	6,867
814,3	9,467
814,8	5,667
815,2	18,267
815,6	2,667
816,1	9,067
816,5	15,067
816,9	13,267
817,3	-14,933
817,8	52,667
818,2	20,467
818,6	39,467
819,1	20,867
819,5	-9,533
819,9	30,267
820,4	0,067
820,8	27,667
821,2	35,267
821,7	28,067
822,1	4,667
822,5	19,667
822,9	15,867
823,4	14,467
823,8	40,267
824,2	16,867
824,7	-3,933
825,1	2,267
825,5	-5,333
826	2,667
826,4	26,467
826,8	38,267
827,3	29,467
827,7	15,867
828,1	24,067
828,5	15,667
829	33,467
829,4	5,467
829,8	-0,133
830,3	4,267
830,7	-5,333
831,1	-13,733
831,6	15,867
832	10,667
832,4	23,267
832,8	26,267
833,3	2,067
833,7	29,067
834,1	8,667
834,6	-23,533
835	-6,133
835,4	7,067
835,8	18,067
836,3	14,267
836,7	23,467
837,1	34,267
837,6	-4,133
838	4,267
838,4	8,267
838,9	9,267
839,3	-1,133
839,7	16,067
840,1	-10,733
840,6	2,267
841	23,267
841,4	5,867
841,9	-4,933
842,3	11,467
842,7	-10,533
843,1	9,867
843,6	33,267
844	4,467
844,4	27,667
844,9	21,867
845,3	11,667
845,7	15,067
846,2	23,467
846,6	18,267
847	21,067
847,4	9,667
847,9	26,267
848,3	-12,533
848,7	54,067
849,2	41,467
849,6	36,667
850	6,867
850,4	-2,333
850,9	-5,733
851,3	27,267
851,7	9,267
852,2	6,867
852,6	37,267
853	10,067
853,4	-9,133
853,9	18,667
854,3	17,267
854,7	-4,733
855,2	15,467
855,6	-8,333
856	-6,133
856,4	12,267
856,9	8,867
857,3	-14,333
857,7	32,267
858,2	28,067
858,6	12,667
859	14,467
859,4	27,067
859,9	17,667
860,3	4,667
860,7	7,867
861,1	21,667
861,6	26,867
862	6,467
862,4	3,067
862,9	9,067
863,3	12,267
863,7	-2,133
864,1	10,867
864,6	-2,133
865	6,067
865,4	35,067
865,9	13,867
866,3	21,067
866,7	39,067
867,1	25,867
867,6	30,467
868	13,867
868,4	35,667
868,8	7,267
869,3	39,067
869,7	12,667
870,1	-23,533
870,6	21,667
871	0,067
871,4	59,067
871,8	21,267
872,3	280,467
872,7	-0,933
873,1	10,067
873,5	-8,333
874	33,067
874,4	15,267
874,8	30,067
875,3	27,667
875,7	-19,933
876,1	15,467
876,5	21,267
877	-9,133
877,4	32,667
877,8	23,667
878,2	-9,733
878,7	25,667
879,1	-15,933
879,5	-1,733
879,9	13,667
880,4	23,667
880,8	-23,333
881,2	-17,333
881,7	22,867
882,1	-10,733
882,5	5,067
882,9	24,267
883,4	11,467
883,8	20,267
884,2	17,467
884,6	9,467
885,1	37,467
885,5	-25,133
885,9	40,067
886,3	-4,333
886,8	17,467
887,2	6,067
887,6	18,067
888	48,867
888,5	-10,133
888,9	-19,533
889,3	2,667
889,8	6,667
890,2	27,867
890,6	2,067
891	21,667
891,5	17,067
891,9	-11,133
892,3	23,667
892,7	2,067
893,2	12,667
893,6	13,467
894	19,867
894,4	45,267
894,9	18,667
895,3	42,067
895,7	11,467
896,1	-1,933
896,6	-1,933
897	58,867
897,4	-8,533
897,8	-23,333
898,3	17,067
898,7	-6,933
899,1	19,667
899,5	6,267
900	29,667
900,4	21,867
900,8	14,067
901,2	-5,533
901,7	-3,533
902,1	-2,333
902,5	-25,133
902,9	-2,533
903,4	6,067
903,8	-11,133
904,2	-0,733
904,6	13,267
905,1	9,267
905,5	20,267
905,9	16,667
906,3	-7,333
906,8	-7,333
907,2	12,267
907,6	-18,333
908	14,267
908,5	-7,933
908,9	36,067
909,3	6,267
909,7	-9,133
910,2	-2,533
910,6	-0,733
911	19,867
911,4	12,267
911,9	8,467
912,3	-5,333
912,7	11,467
913,1	27,067
913,6	3,067
914	-7,133
914,4	-19,733
914,8	3,267
915,3	-12,733
915,7	-14,133
916,1	21,267
916,5	-0,933
916,9	10,067
917,4	30,267
917,8	13,667
918,2	23,267
918,6	23,067
919,1	-9,333
919,5	-36,933
919,9	27,867
920,3	1,067
920,8	-2,133
921,2	11,667
921,6	-1,733
922	13,467
922,5	4,667
922,9	16,467
923,3	-13,933
923,7	20,667
924,2	11,867
924,6	28,067
925	-16,333
925,4	10,067
925,8	26,067
926,3	36,267
926,7	28,667
927,1	9,867
927,5	23,867
928	-12,933
928,4	47,067
928,8	22,467
929,2	10,667
929,7	4,467
930,1	-28,933
930,5	-6,133
930,9	-7,933
931,3	14,467
931,8	0,267
932,2	38,867
932,6	-12,533
933	7,667
933,5	12,067
933,9	29,667
934,3	-14,533
934,7	28,467
935,2	22,267
935,6	9,467
936	19,867
936,4	14,067
936,8	-41,733
937,3	0,267
937,7	10,867
938,1	0,467
938,5	-0,133
939	29,867
939,4	-16,533
939,8	3,267
940,2	-18,733
940,6	9,667
941,1	-0,533
941,5	-8,933
941,9	-7,733
942,3	7,267
942,8	-25,933
943,2	9,867
943,6	5,467
944	15,267
944,4	8,067
944,9	19,667
945,3	15,467
945,7	-3,933
946,1	8,667
946,6	1,467
947	21,667
947,4	-3,933
947,8	24,867
948,2	-14,733
948,7	12,067
949,1	29,467
949,5	0,467
949,9	19,667
950,3	-11,933
950,8	24,467
951,2	19,667
951,6	-16,533
952	18,067
952,5	41,867
952,9	8,067
953,3	-3,733
953,7	53,267
954,1	17,467
954,6	-21,533
955	7,867
955,4	24,867
955,8	-6,133
956,2	12,267
956,7	11,067
957,1	-6,333
957,5	5,467
957,9	14,067
958,3	-30,333
958,8	-12,133
959,2	-34,333
959,6	-6,533
960	7,267
960,5	51,667
960,9	7,067
961,3	19,267
961,7	20,267
962,1	24,267
962,6	-11,333
963	6,267
963,4	42,267
963,8	16,067
964,2	-7,533
964,7	-12,133
965,1	19,467
965,5	3,267
965,9	0,067
966,3	10,467
966,8	1,867
967,2	-22,533
967,6	-1,733
968	-0,933
968,4	-6,133
968,9	-1,133
969,3	24,667
969,7	16,267
970,1	-0,933
970,5	23,867
971	-6,933
971,4	24,467
971,8	37,867
972,2	15,067
972,6	-0,933
973,1	41,067
973,5	21,867
973,9	-1,133
974,3	26,667
974,7	2,867
975,2	12,467
975,6	47,067
976	-7,533
976,4	8,467
976,8	-14,533
977,3	-2,733
977,7	10,467
978,1	-2,533
978,5	16,267
978,9	-3,933
979,4	21,267
979,8	-5,133
980,2	-4,333
980,6	8,067
981	-13,333
981,5	-4,133
981,9	12,667
982,3	18,267
982,7	41,467
983,1	-19,133
983,6	-19,133
984	19,867
984,4	15,467
984,8	32,467
985,2	11,867
985,6	23,067
986,1	0,267
986,5	-16,133
986,9	14,667
987,3	-8,133
987,7	-5,933
988,2	-29,133
988,6	8,867
989	37,467
989,4	-19,933
989,8	25,067
990,3	10,467
990,7	-13,533
991,1	-8,133
991,5	9,667
991,9	29,267
992,3	-18,933
992,8	15,267
993,2	15,267
993,6	-3,133
994	2,067
994,4	15,867
994,9	19,467
995,3	0,067
995,7	-7,733
996,1	28,267
996,5	-7,933
996,9	2,867
997,4	8,067
997,8	1,867
998,2	-11,333
998,6	27,067
999	18,467
999,5	17,667
999,9	0,867
1000,3	8,267
1000,7	11,067
1001,1	-5,133
1001,5	18,667
1002	15,067
1002,4	-3,733
1002,8	11,467
1003,2	-3,733
1003,6	15,467
1004	-11,733
1004,5	11,067
1004,9	7,467
1005,3	15,867
1005,7	3,067
1006,1	3,867
1006,6	-29,133
1007	25,467
1007,4	10,267
1007,8	45,267
1008,2	22,467
1008,6	29,267
1009,1	1,267
1009,5	5,267
1009,9	-11,533
1010,3	-47,533
1010,7	0,667
1011,1	3,667
1011,6	-0,733
1012	11,867
1012,4	0,067
1012,8	41,467
1013,2	27,867
1013,6	4,867
1014,1	1,267
1014,5	23,667
1014,9	24,267
1015,3	15,267
1015,7	-14,333
1016,1	-11,533
1016,6	30,067
1017	-4,733
1017,4	18,467
1017,8	29,267
1018,2	4,467
1018,6	-6,533
1019,1	3,867
1019,5	-3,533
1019,9	5,867
1020,3	39,067
1020,7	35,267
1021,1	4,267
1021,6	-12,333
1022	17,867
1022,4	38,067
1022,8	31,267
1023,2	-6,933
1023,6	-15,133
1024,1	39,067
1024,5	-27,133
1024,9	25,867
1025,3	-10,733
1025,7	11,467
1026,1	2,667
1026,6	13,067
1027	-20,133
1027,4	15,067
1027,8	62,467
1028,2	0,067
1028,6	-21,733
1029	-19,333
1029,5	21,667
1029,9	23,467
1030,3	3,667
1030,7	40,867
1031,1	-4,933
1031,5	-1,133
1032	-3,933
1032,4	7,067
1032,8	24,667
1033,2	-7,333
1033,6	3,867
1034	21,667
1034,4	17,067
1034,9	28,667
1035,3	-7,333
1035,7	19,467
1036,1	-11,533
1036,5	-5,933
1036,9	-1,533
1037,4	0,067
1037,8	40,667
1038,2	41,267
1038,6	11,467
1039	-19,733
1039,4	14,667
1039,8	24,467
1040,3	0,267
1040,7	-9,533
1041,1	24,867
1041,5	37,067
1041,9	8,867
1042,3	17,267
1042,7	-10,333
1043,2	29,667
1043,6	-12,133
1044	3,267
1044,4	1,667
1044,8	28,667
1045,2	41,267
1045,6	3,867
1046,1	2,067
1046,5	40,667
1046,9	29,067
1047,3	44,067
1047,7	9,867
1048,1	8,067
1048,5	-6,733
1049	-7,733
1049,4	21,267
1049,8	-18,133
1050,2	1,667
1050,6	11,467
1051	25,467
1051,4	14,267
1051,9	-1,133
1052,3	-7,733
1052,7	0,267
1053,1	-11,933
1053,5	34,867
1053,9	1,467
1054,3	28,667
1054,8	10,467
1055,2	7,667
1055,6	9,067
1056	12,467
1056,4	22,667
1056,8	14,467
1057,2	18,267
1057,6	12,267
1058,1	-30,933
1058,5	21,067
1058,9	14,067
1059,3	38,267
1059,7	14,267
1060,1	33,667
1060,5	16,667
1061	-23,133
1061,4	-7,733
1061,8	35,267
1062,2	11,867
1062,6	33,667
1063	-2,533
1063,4	21,667
1063,8	-25,333
1064,3	16,867
1064,7	18,867
1065,1	9,267
1065,5	15,267
1065,9	-16,133
1066,3	-24,533
1066,7	-0,733
1067,1	4,467
1067,6	39,867
1068	19,467
1068,4	-0,133
1068,8	12,267
1069,2	-5,133
1069,6	7,667
1070	27,467
1070,4	-10,533
1070,9	-19,133
1071,3	-4,133
1071,7	0,667
1072,1	14,667
1072,5	-8,933
1072,9	-30,533
1073,3	28,467
1073,7	22,867
1074,2	2,667
1074,6	11,267
1075	-9,533
1075,4	32,467
1075,8	17,867
1076,2	1,867
1076,6	4,067
1077	-11,733
1077,5	33,467
1077,9	-19,533
1078,3	-21,733
1078,7	23,267
1079,1	-2,133
1079,5	1,667
1079,9	15,667
1080,3	-3,933
1080,7	26,867
1081,2	26,267
1081,6	8,867
1082	-1,533
1082,4	22,867
1082,8	15,267
1083,2	-4,933
1083,6	25,867
1084	17,667
1084,5	24,067
1084,9	2,467
1085,3	-14,133
1085,7	-1,133
1086,1	15,867
1086,5	22,067
1086,9	43,467
1087,3	1,067
1087,7	-2,733
1088,2	2,067
1088,6	18,067
1089	2,667
1089,4	18,067
1089,8	-13,733
1090,2	17,467
1090,6	-4,333
1091	5,867
1091,4	1,667
1091,9	14,667
1092,3	-3,733
1092,7	-9,333
1093,1	2,467
1093,5	-14,933
1093,9	21,467
1094,3	12,667
1094,7	19,667
1095,1	5,867
1095,5	12,067
1096	11,667
1096,4	2,667
1096,8	12,067
1097,2	-14,533
1097,6	43,867
1098	11,867
1098,4	14,467
1098,8	10,067
1099,2	3,667
1099,6	-21,733
1100,1	9,667
1100,5	-19,533
1100,9	14,467
1101,3	8,667
1101,7	23,067
1102,1	2,067
1102,5	5,267
1102,9	-9,333
1103,3	7,867
1103,7	-11,333
1104,2	23,867
1104,6	-5,733
1105	6,867
1105,4	-11,333
1105,8	19,467
1106,2	14,867
1106,6	27,067
1107	0,267
1107,4	1,067
1107,8	1,267
1108,3	-0,733
