Data from Subt2_00017.txt Node
Date: Wed Aug 02 19:12:07 MSK 2023
User: vat
Spectrometer: MAYP114033
Trigger mode: 0
Integration Time (sec): 7,000000E-1
Scans to average: 5
Electric dark correction enabled: true
Nonlinearity correction enabled: false
Boxcar width: 0
XAxis mode: Wavelengths
Number of Pixels in Spectrum: 2068
>>>>>Begin Spectral Data<<<<<
199,4	-2,7
199,9	-2,9
200,4	0,3
200,8	1,1
201,3	-33,5
201,8	-5,3
202,2	-1,9
202,7	27,7
203,2	6,5
203,6	-10,3
204,1	29,9
204,6	3,9
205	-9,1
205,5	15,1
206	20,3
206,4	-20,3
206,9	27,5
207,4	-4,5
207,8	-17,9
208,3	26,5
208,8	-12,5
209,2	18,1
209,7	4,1
210,2	10,9
210,6	6,5
211,1	-5,1
211,5	-1,9
212	-11,5
212,5	11,7
212,9	-9,7
213,4	-30,1
213,9	13,1
214,3	-4,3
214,8	22,3
215,3	24,7
215,7	-36,5
216,2	-2,7
216,7	-5,7
217,1	7,9
217,6	8,1
218,1	19,9
218,5	3,1
219	15,7
219,5	10,9
219,9	-8,5
220,4	17,3
220,9	-34,5
221,3	0,5
221,8	-37,9
222,3	11,1
222,7	-12,3
223,2	14,5
223,6	28,7
224,1	-9,1
224,6	23,9
225	4,7
225,5	3,7
226	0,7
226,4	-2,9
226,9	7,5
227,4	-7,5
227,8	4,7
228,3	-14,7
228,8	22,9
229,2	2,9
229,7	18,5
230,2	-21,9
230,6	9,9
231,1	-14,5
231,5	-10,5
232	-9,7
232,5	-0,7
232,9	2,9
233,4	-0,3
233,9	11,3
234,3	4,5
234,8	22,9
235,3	8,7
235,7	-10,1
236,2	-9,1
236,7	25,3
237,1	15,5
237,6	-13,5
238,1	-23,3
238,5	-1,3
239	12,5
239,4	-31,5
239,9	-15,5
240,4	25,7
240,8	-13,9
241,3	-13,1
241,8	18,9
242,2	1,9
242,7	10,7
243,2	19,1
243,6	9,5
244,1	-5,7
244,6	14,1
245	6,1
245,5	8,1
245,9	-1,9
246,4	21,5
246,9	13,9
247,3	-1,5
247,8	2,3
248,3	-12,3
248,7	2,7
249,2	19,7
249,7	-6,7
250,1	23,1
250,6	18,5
251	-6,1
251,5	14,1
252	18,5
252,4	23,1
252,9	20,3
253,4	-6,1
253,8	9,1
254,3	-6,7
254,8	-20,5
255,2	32,9
255,7	7,1
256,1	3,1
256,6	8,7
257,1	4,3
257,5	18,1
258	-7,3
258,5	12,9
258,9	-8,9
259,4	19,9
259,9	-31,1
260,3	-14,1
260,8	-16,9
261,2	18,5
261,7	-4,9
262,2	6,3
262,6	-1,9
263,1	13,5
263,6	10,1
264	-25,9
264,5	6,7
264,9	4,1
265,4	3,3
265,9	14,5
266,3	9,5
266,8	-2,3
267,3	15,9
267,7	22,9
268,2	5,5
268,7	26,1
269,1	37,1
269,6	10,7
270	-7,7
270,5	0,7
271	10,9
271,4	30,5
271,9	-18,1
272,4	12,5
272,8	-22,7
273,3	10,9
273,7	31,5
274,2	-12,1
274,7	-2,9
275,1	27,5
275,6	10,7
276,1	-21,5
276,5	-9,1
277	2,5
277,4	12,5
277,9	-13,1
278,4	7,9
278,8	15,3
279,3	-11,9
279,8	24,3
280,2	-6,7
280,7	9,7
281,1	-3,1
281,6	-16,1
282,1	22,5
282,5	8,3
283	33,1
283,4	-6,5
283,9	7,7
284,4	-20,5
284,8	2,5
285,3	-16,3
285,8	26,9
286,2	6,3
286,7	8,9
287,1	20,5
287,6	-22,5
288,1	-16,5
288,5	0,1
289	6,1
289,5	21,9
289,9	25,9
290,4	3,1
290,8	17,9
291,3	-7,7
291,8	-12,7
292,2	1,7
292,7	36,9
293,1	20,1
293,6	8,7
294,1	10,9
294,5	-31,1
295	-9,5
295,5	18,1
295,9	0,1
296,4	-12,5
296,8	-17,7
297,3	17,1
297,8	19,7
298,2	8,3
298,7	1,3
299,1	2,9
299,6	16,7
300,1	20,1
300,5	-0,3
301	-30,7
301,5	-48,1
301,9	24,5
302,4	-24,3
302,8	5,5
303,3	26,5
303,8	-17,1
304,2	15,1
304,7	-20,3
305,1	-21,3
305,6	-6,9
306,1	-17,1
306,5	2,9
307	11,3
307,4	-1,1
307,9	8,1
308,4	-6,3
308,8	5,9
309,3	28,1
309,8	-7,1
310,2	-2,9
310,7	31,9
311,1	12,1
311,6	10,7
312,1	-24,1
312,5	-9,7
313	16,9
313,4	10,5
313,9	36,5
314,4	-16,1
314,8	20,1
315,3	35,9
315,7	-1,9
316,2	-10,1
316,7	-0,5
317,1	-12,5
317,6	-14,1
318	-15,3
318,5	11,7
319	4,5
319,4	26,1
319,9	-11,3
320,3	26,5
320,8	5,7
321,3	-18,7
321,7	2,5
322,2	3,3
322,6	0,5
323,1	22,9
323,6	4,3
324	10,5
324,5	28,7
324,9	-9,5
325,4	-26,3
325,9	28,9
326,3	25,9
326,8	24,9
327,2	26,5
327,7	5,9
328,2	-5,3
328,6	1,7
329,1	2,5
329,5	14,9
330	8,5
330,5	-0,5
330,9	26,3
331,4	-11,7
331,8	17,7
332,3	10,7
332,8	-9,1
333,2	11,9
333,7	34,9
334,1	32,3
334,6	11,1
335,1	5,3
335,5	14,7
336	-9,9
336,4	1,9
336,9	19,1
337,4	-13,3
337,8	-6,9
338,3	20,7
338,7	-11,9
339,2	24,3
339,7	-14,5
340,1	3,5
340,6	24,5
341	22,3
341,5	13,7
342	-1,5
342,4	16,1
342,9	4,1
343,3	2,7
343,8	2,3
344,2	-21,1
344,7	-22,1
345,2	39,5
345,6	-0,1
346,1	10,5
346,5	9,1
347	-3,1
347,5	-14,7
347,9	0,5
348,4	1,9
348,8	37,9
349,3	-14,3
349,8	-0,1
350,2	-1,9
350,7	40,5
351,1	7,7
351,6	4,7
352	-30,1
352,5	-9,5
353	-4,3
353,4	-13,9
353,9	41,5
354,3	19,9
354,8	23,9
355,3	38,1
355,7	40,9
356,2	51,7
356,6	43,5
357,1	55,3
357,5	50,5
358	88,5
358,5	94,3
358,9	101,1
359,4	138,9
359,8	147,7
360,3	193,9
360,8	189,3
361,2	235,9
361,7	240,3
362,1	239,3
362,6	313,5
363	363,3
363,5	380,5
364	449,1
364,4	491,3
364,9	502,7
365,3	589,5
365,8	620,5
366,3	715,3
366,7	682,9
367,2	778,5
367,6	776,9
368,1	784,9
368,5	866,1
369	865,3
369,5	865,3
369,9	825,3
370,4	820,7
370,8	821,3
371,3	793,5
371,7	744,1
372,2	725,1
372,7	723,7
373,1	655,3
373,6	631,3
374	578,3
374,5	530,1
374,9	493,7
375,4	466,7
375,9	460,3
376,3	403,9
376,8	369,7
377,2	357,5
377,7	312,1
378,2	290,3
378,6	276,1
379,1	218,1
379,5	250,1
380	200,1
380,4	169,3
380,9	159,9
381,4	143,1
381,8	163,9
382,3	120,9
382,7	121,1
383,2	95,3
383,6	95,1
384,1	108,7
384,6	124,5
385	63,9
385,5	79,5
385,9	67,9
386,4	46,3
386,8	54,1
387,3	53,5
387,7	93,5
388,2	50,7
388,7	70,1
389,1	37,9
389,6	37,5
390	68,3
390,5	29,3
390,9	26,3
391,4	24,9
391,9	-11,3
392,3	51,1
392,8	37,3
393,2	31,9
393,7	36,1
394,1	17,3
394,6	8,5
395,1	12,5
395,5	38,5
396	34,7
396,4	44,9
396,9	-1,7
397,3	16,9
397,8	28,1
398,2	9,7
398,7	7,3
399,2	9,1
399,6	52,5
400,1	15,7
400,5	28,7
401	32,7
401,4	36,1
401,9	36,7
402,4	47,9
402,8	26,3
403,3	17,5
403,7	21,9
404,2	25,5
404,6	56,1
405,1	4,1
405,5	22,1
406	27,3
406,5	48,9
406,9	26,1
407,4	35,5
407,8	37,5
408,3	34,1
408,7	25,3
409,2	42,5
409,6	15,7
410,1	28,9
410,6	45,7
411	39,9
411,5	38,5
411,9	59,3
412,4	48,5
412,8	60,1
413,3	64,1
413,7	54,3
414,2	90,7
414,7	45,9
415,1	89,1
415,6	74,9
416	116,9
416,5	93,1
416,9	81,5
417,4	98,3
417,8	100,3
418,3	122,3
418,8	136,7
419,2	109,3
419,7	140,1
420,1	129,1
420,6	140,5
421	171,1
421,5	182,9
421,9	163,9
422,4	167,5
422,8	186,9
423,3	195,1
423,8	214,9
424,2	187,3
424,7	226,1
425,1	227,9
425,6	269,1
426	237,1
426,5	287,1
426,9	316,3
427,4	319,1
427,9	327,1
428,3	310,9
428,8	319,1
429,2	332,7
429,7	385,5
430,1	370,1
430,6	411,7
431	403,3
431,5	423,3
431,9	458,1
432,4	473,9
432,8	495,5
433,3	517,5
433,8	537,5
434,2	573,9
434,7	586,7
435,1	575,7
435,6	666,3
436	670,3
436,5	698,9
436,9	763,7
437,4	799,5
437,8	788,7
438,3	843,1
438,8	857,5
439,2	906,7
439,7	958,5
440,1	954,7
440,6	1040,9
441	1075,5
441,5	1132,5
441,9	1139,3
442,4	1176,7
442,8	1234,7
443,3	1272,1
443,7	1331,7
444,2	1368,1
444,7	1431,3
445,1	1512,7
445,6	1574,3
446	1602,3
446,5	1672,7
446,9	1704,9
447,4	1742,3
447,8	1822,7
448,3	1894,7
448,7	1982,5
449,2	2007,7
449,6	2031,3
450,1	2154,7
450,6	2223,5
451	2282,7
451,5	2313,9
451,9	2422,9
452,4	2451,7
452,8	2558,5
453,3	2581,9
453,7	2690,7
454,2	2759,3
454,6	2823,9
455,1	2910,5
455,5	2979,3
456	3006,3
456,4	3155,1
456,9	3158,9
457,3	3260,9
457,8	3309,1
458,3	3420,7
458,7	3497,9
459,2	3638,9
459,6	3585,9
460,1	3721,1
460,5	3799,1
461	3894,3
461,4	3959,5
461,9	4039,1
462,3	4103,3
462,8	4182,9
463,2	4267,3
463,7	4318,7
464,1	4348,7
464,6	4490,7
465	4538,3
465,5	4583,7
466	4687,7
466,4	4721,1
466,9	4782,7
467,3	4862,9
467,8	4941,5
468,2	5027,9
468,7	5008,7
469,1	5129,1
469,6	5191,3
470	5270,3
470,5	5287,9
470,9	5394,7
471,4	5431,7
471,8	5478,9
472,3	5530,9
472,7	5591,5
473,2	5663,7
473,6	5691,1
474,1	5725,3
474,5	5764,5
475	5796,5
475,4	5879,3
475,9	5868,1
476,4	5994,7
476,8	6009,1
477,3	6081,5
477,7	6093,5
478,2	6173,3
478,6	6125,3
479,1	6206,7
479,5	6237,9
480	6263,1
480,4	6287,1
480,9	6328,1
481,3	6302,7
481,8	6365,1
482,2	6373,5
482,7	6378,9
483,1	6420,5
483,6	6394,7
484	6439,7
484,5	6478,7
484,9	6470,1
485,4	6477,7
485,8	6465,3
486,3	6409,5
486,7	6480,1
487,2	6433,3
487,6	6471,7
488,1	6494,9
488,5	6453,5
489	6471,3
489,4	6429,5
489,9	6490,7
490,4	6432,9
490,8	6418,9
491,3	6424,3
491,7	6393,7
492,2	6434,1
492,6	6319,7
493,1	6355,9
493,5	6345,5
494	6313,1
494,4	6218,3
494,9	6235,3
495,3	6261,9
495,8	6197,1
496,2	6158,9
496,7	6138,7
497,1	6111,1
497,6	6126,5
498	6013,7
498,5	6035,1
498,9	5966,7
499,4	5992,7
499,8	5927,7
500,3	5903,3
500,7	5939,5
501,2	5809,3
501,6	5823,7
502,1	5822,9
502,5	5727,7
503	5697,9
503,4	5653,5
503,9	5654,1
504,3	5610,7
504,8	5593,5
505,2	5531,9
505,7	5468,5
506,1	5419,5
506,6	5398,3
507	5330,9
507,5	5342,3
507,9	5248,7
508,4	5252,9
508,8	5177,1
509,3	5127,3
509,7	5125,3
510,2	5081,7
510,6	5003,9
511,1	4980,5
511,5	4955,7
512	4893,7
512,4	4856,3
512,9	4812,1
513,3	4737,9
513,8	4749,7
514,2	4652,5
514,7	4609,7
515,1	4608,7
515,6	4523,7
516	4470,3
516,5	4402,9
516,9	4384,7
517,4	4370,1
517,8	4319,9
518,3	4256,5
518,7	4247,1
519,2	4173,9
519,6	4121,1
520,1	4071,1
520,5	4004,5
521	3972,9
521,4	3932,5
521,9	3901,1
522,3	3829,7
522,8	3818,5
523,2	3750,7
523,7	3729,5
524,1	3672,3
524,6	3557,1
525	3588,3
525,5	3538,7
525,9	3459,9
526,4	3456,7
526,8	3436,7
527,3	3365,9
527,7	3375,5
528,2	3314,1
528,6	3270,7
529,1	3241,1
529,5	3182,1
530	3142,1
530,4	3106,3
530,9	3085,1
531,3	3065,3
531,8	3007,5
532,2	3004,7
532,6	2921,7
533,1	2897,9
533,5	2864,3
534	2827,3
534,4	2783,5
534,9	2777,7
535,3	2773,1
535,8	2717,1
536,2	2688,5
536,7	2626,3
537,1	2584,5
537,6	2600,3
538	2541,9
538,5	2542,9
538,9	2474,1
539,4	2482,7
539,8	2430,1
540,3	2326,3
540,7	2347,7
541,2	2295,3
541,6	2288,7
542,1	2270,1
542,5	2249,1
543	2239,3
543,4	2174,5
543,9	2169,1
544,3	2147,1
544,8	2111,7
545,2	2116,5
545,7	2064,9
546,1	2039,5
546,5	2015,1
547	1925,3
547,4	1990,1
547,9	1931,5
548,3	1878,7
548,8	1884,3
549,2	1887,1
549,7	1856,7
550,1	1812,1
550,6	1817,1
551	1783,5
551,5	1752,1
551,9	1720,9
552,4	1692,9
552,8	1676,3
553,3	1665,1
553,7	1662,1
554,2	1630,5
554,6	1612,3
555,1	1619,1
555,5	1585,5
555,9	1575,9
556,4	1516,5
556,8	1559,1
557,3	1535,5
557,7	1493,1
558,2	1504,1
558,6	1480,7
559,1	1430,9
559,5	1449,1
560	1408,5
560,4	1391,3
560,9	1406,3
561,3	1344,7
561,8	1351,7
562,2	1333,9
562,7	1315,1
563,1	1320,9
563,6	1268,3
564	1254,3
564,4	1217,5
564,9	1229,5
565,3	1236,1
565,8	1194,3
566,2	1239,1
566,7	1177,5
567,1	1167,7
567,6	1144,1
568	1125,3
568,5	1127,7
568,9	1098,5
569,4	1122,5
569,8	1110,1
570,3	1104,1
570,7	1057,7
571,1	1069,1
571,6	1067,9
572	1046,7
572,5	1046,1
572,9	1008,5
573,4	997,3
573,8	986,9
574,3	972,5
574,7	973,7
575,2	950,3
575,6	946,5
576,1	909,5
576,5	902,9
576,9	937,5
577,4	911,9
577,8	868,5
578,3	880,7
578,7	869,9
579,2	834,7
579,6	858,7
580,1	837,9
580,5	840,1
581	824,9
581,4	801,5
581,9	809,9
582,3	803,3
582,7	815,5
583,2	774,5
583,6	769,5
584,1	771,3
584,5	751,7
585	732,3
585,4	771,5
585,9	704,9
586,3	708,9
586,8	707,1
587,2	706,9
587,6	721,5
588,1	715,7
588,5	693,7
589	671,9
589,4	700,7
589,9	660,3
590,3	632,3
590,8	659,1
591,2	649,1
591,7	637,9
592,1	656,3
592,5	623,9
593	613,1
593,4	668,7
593,9	617,1
594,3	626,9
594,8	603,9
595,2	587,7
595,7	564,1
596,1	607,5
596,6	585,9
597	594,9
597,4	583,3
597,9	585,1
598,3	574,7
598,8	532,5
599,2	552,1
599,7	556,3
600,1	520,1
600,6	545,1
601	530,1
601,4	567,9
601,9	543,9
602,3	513,9
602,8	513,3
603,2	464,9
603,7	495,3
604,1	481,9
604,6	517,7
605	499,3
605,4	492,3
605,9	490,1
606,3	479,3
606,8	487,1
607,2	493,3
607,7	489,9
608,1	478,1
608,6	447,7
609	475,5
609,4	464,3
609,9	473,9
610,3	433,9
610,8	442,9
611,2	446,5
611,7	437,7
612,1	439,9
612,6	451,7
613	414,7
613,4	417,9
613,9	426,9
614,3	412,3
614,8	439,7
615,2	427,3
615,7	390,9
616,1	410,1
616,6	404,9
617	395,7
617,4	425,5
617,9	408,5
618,3	396,3
618,8	398,3
619,2	381,1
619,7	371,1
620,1	364,3
620,5	393,1
621	355,1
621,4	348,7
621,9	356,3
622,3	369,5
622,8	365,9
623,2	370,5
623,6	367,1
624,1	388,9
624,5	369,7
625	339,1
625,4	348,1
625,9	365,5
626,3	298,9
626,8	331,3
627,2	301,1
627,6	328,1
628,1	320,3
628,5	350,5
629	329,5
629,4	344,9
629,9	327,9
630,3	327,7
630,7	316,9
631,2	281,7
631,6	314,7
632,1	327,3
632,5	298,5
633	320,1
633,4	313,9
633,8	322,3
634,3	286,3
634,7	294,5
635,2	308,5
635,6	283,5
636,1	271,1
636,5	257,9
636,9	277,9
637,4	281,5
637,8	294,7
638,3	276,7
638,7	266,3
639,2	259,3
639,6	281,3
640	271,9
640,5	266,5
640,9	289,1
641,4	274,7
641,8	268,7
642,2	264,3
642,7	278,5
643,1	257,7
643,6	220,3
644	270,1
644,5	227,9
644,9	245,9
645,3	283,5
645,8	257,3
646,2	228,3
646,7	239,7
647,1	237,5
647,6	227,1
648	260,9
648,4	225,9
648,9	227,3
649,3	252,7
649,8	237,3
650,2	232,1
650,6	231,1
651,1	213,5
651,5	252,7
652	224,9
652,4	235,9
652,9	226,7
653,3	242,3
653,7	212,7
654,2	242,5
654,6	227,9
655,1	231,3
655,5	222,9
655,9	168,1
656,4	241,3
656,8	218,7
657,3	221,1
657,7	202,9
658,2	209,9
658,6	186,3
659	166,5
659,5	185,9
659,9	210,1
660,4	204,5
660,8	191,3
661,2	203,7
661,7	208,3
662,1	214,5
662,6	187,3
663	183,9
663,4	195,7
663,9	200,7
664,3	190,9
664,8	170,3
665,2	206,5
665,6	206,9
666,1	180,7
666,5	157,7
667	238,7
667,4	201,5
667,9	207,7
668,3	176,5
668,7	204,7
669,2	189,3
669,6	172,3
670,1	163,9
670,5	172,9
670,9	192,1
671,4	187,1
671,8	175,5
672,3	201,5
672,7	162,1
673,1	205,5
673,6	173,7
674	170,1
674,5	155,7
674,9	184,1
675,3	143,9
675,8	165,7
676,2	156,7
676,7	174,1
677,1	173,5
677,5	198,7
678	156,9
678,4	176,1
678,9	161,5
679,3	165,1
679,7	168,3
680,2	155,3
680,6	190,9
681,1	169,3
681,5	176,3
681,9	151,1
682,4	156,7
682,8	148,7
683,3	150,7
683,7	187,5
684,1	149,3
684,6	175,7
685	143,7
685,5	151,1
685,9	163,3
686,3	160,5
686,8	134,7
687,2	153,9
687,7	138,1
688,1	142,1
688,5	153,3
689	132,1
689,4	156,1
689,9	142,1
690,3	144,5
690,7	129,5
691,2	126,9
691,6	133,5
692	139,9
692,5	139,9
692,9	151,5
693,4	128,3
693,8	153,9
694,2	144,5
694,7	161,7
695,1	127,1
695,6	139,9
696	153,7
696,4	129,7
696,9	137,3
697,3	116,5
697,8	146,1
698,2	140,5
698,6	136,3
699,1	129,5
699,5	100,1
699,9	129,3
700,4	142,1
700,8	129,5
701,3	133,9
701,7	136,1
702,1	127,5
702,6	117,5
703	150,3
703,5	140,3
703,9	146,7
704,3	112,3
704,8	120,5
705,2	157,1
705,6	121,3
706,1	103,7
706,5	100,9
707	109,5
707,4	101,1
707,8	111,9
708,3	109,1
708,7	129,9
709,2	73,7
709,6	128,9
710	143,3
710,5	80,7
710,9	125,3
711,3	107,7
711,8	94,9
712,2	119,9
712,7	85,1
713,1	117,1
713,5	81,7
714	107,3
714,4	81,1
714,8	128,7
715,3	115,7
715,7	82,3
716,2	80,7
716,6	106,3
717	92,7
717,5	115,9
717,9	94,3
718,3	120,9
718,8	102,5
719,2	126,1
719,7	76,3
720,1	121,7
720,5	72,9
721	86,5
721,4	122,9
721,8	68,5
722,3	100,7
722,7	68,1
723,2	108,7
723,6	94,5
724	78,7
724,5	92,7
724,9	101,3
725,3	108,1
725,8	106,5
726,2	127,1
726,7	116,7
727,1	87,3
727,5	111,1
728	77,9
728,4	103,3
728,8	96,1
729,3	86,3
729,7	85,3
730,1	76,3
730,6	83,1
731	68,1
731,5	81,3
731,9	54,5
732,3	101,7
732,8	77,7
733,2	86,5
733,6	83,5
734,1	100,9
734,5	83,3
734,9	82,5
735,4	85,9
735,8	73,1
736,3	91,1
736,7	100,3
737,1	75,5
737,6	85,9
738	90,9
738,4	69,3
738,9	71,9
739,3	101,9
739,7	74,5
740,2	81,3
740,6	79,9
741,1	89,3
741,5	114,3
741,9	61,7
742,4	73,7
742,8	92,5
743,2	87,7
743,7	81,3
744,1	62,9
744,5	70,5
745	55,7
745,4	113,1
745,8	61,7
746,3	54,3
746,7	71,7
747,2	104,9
747,6	61,9
748	85,1
748,5	92,7
748,9	66,9
749,3	93,1
749,8	79,9
750,2	77,1
750,6	63,1
751,1	87,9
751,5	81,1
751,9	63,1
752,4	55,9
752,8	77,1
753,3	65,7
753,7	60,3
754,1	91,3
754,6	100,7
755	81,9
755,4	81,7
755,9	93,9
756,3	60,5
756,7	48,3
757,2	67,5
757,6	80,1
758	52,3
758,5	48,3
758,9	50,7
759,3	64,5
759,8	80,7
760,2	76,3
760,6	67,7
761,1	45,9
761,5	41,7
761,9	74,5
762,4	74,1
762,8	30,1
763,3	53,7
763,7	66,7
764,1	69,7
764,6	25,5
765	72,9
765,4	71,9
765,9	68,3
766,3	67,9
766,7	58,9
767,2	70,9
767,6	73,5
768	55,5
768,5	56,7
768,9	76,3
769,3	63,5
769,8	58,7
770,2	55,3
770,6	58,1
771,1	42,7
771,5	81,3
771,9	48,5
772,4	64,5
772,8	70,3
773,2	86,1
773,7	57,5
774,1	49,9
774,5	74,9
775	44,7
775,4	62,5
775,8	29,9
776,3	57,3
776,7	80,7
777,1	47,5
777,6	50,7
778	60,5
778,4	54,5
778,9	63,9
779,3	-4,3
779,7	23,5
780,2	54,1
780,6	35,7
781	34,5
781,5	50,1
781,9	49,9
782,3	81,7
782,8	84,5
783,2	56,1
783,6	31,9
784,1	75,3
784,5	35,9
784,9	58,9
785,4	40,3
785,8	64,9
786,2	70,1
786,7	40,7
787,1	73,7
787,5	54,5
788	33,1
788,4	46,5
788,8	43,5
789,3	35,1
789,7	39,7
790,1	48,7
790,6	37,7
791	53,7
791,4	45,1
791,9	61,1
792,3	76,9
792,7	56,1
793,2	47,9
793,6	39,9
794	50,3
794,5	41,7
794,9	45,5
795,3	58,3
795,8	37,5
796,2	46,7
796,6	31,1
797,1	47,1
797,5	42,9
797,9	9,1
798,4	30,1
798,8	41,5
799,2	53,5
799,7	40,9
800,1	47,5
800,5	65,5
801	52,9
801,4	31,5
801,8	48,5
802,2	28,7
802,7	9,7
803,1	46,3
803,5	48,1
804	40,7
804,4	36,7
804,8	17,9
805,3	10,9
805,7	15,7
806,1	35,5
806,6	43,5
807	47,9
807,4	45,7
807,9	60,5
808,3	10,3
808,7	42,3
809,2	23,9
809,6	33,3
810	57,1
810,4	36,9
810,9	30,9
811,3	68,3
811,7	32,1
812,2	28,3
812,6	39,3
813	29,1
813,5	51,3
813,9	39,1
814,3	26,5
814,8	53,3
815,2	56,1
815,6	57,9
816,1	9,1
816,5	37,3
816,9	59,7
817,3	45,3
817,8	10,1
818,2	47,3
818,6	41,5
819,1	27,5
819,5	28,9
819,9	24,9
820,4	14,5
820,8	17,5
821,2	17,5
821,7	8,1
822,1	38,9
822,5	29,7
822,9	12,7
823,4	55,7
823,8	45,5
824,2	48,7
824,7	18,7
825,1	42,5
825,5	34,9
826	33,1
826,4	35,7
826,8	29,1
827,3	32,9
827,7	5,1
828,1	12,3
828,5	37,1
829	45,1
829,4	43,9
829,8	33,3
830,3	2,3
830,7	26,7
831,1	43,5
831,6	51,9
832	41,3
832,4	39,5
832,8	27,3
833,3	25,5
833,7	31,9
834,1	35,3
834,6	16,1
835	8,7
835,4	7,7
835,8	29,9
836,3	51,5
836,7	34,5
837,1	25,7
837,6	12,5
838	46,9
838,4	17,3
838,9	3,1
839,3	17,3
839,7	26,5
840,1	24,3
840,6	69,7
841	27,3
841,4	22,7
841,9	17,1
842,3	46,3
842,7	11,5
843,1	17,7
843,6	20,1
844	44,1
844,4	50,5
844,9	16,3
845,3	29,7
845,7	16,5
846,2	10,7
846,6	28,5
847	13,3
847,4	2,9
847,9	20,1
848,3	30,3
848,7	49,3
849,2	-6,3
849,6	13,9
850	5,3
850,4	60,7
850,9	24,1
851,3	-2,1
851,7	21,3
852,2	54,5
852,6	28,3
853	22,5
853,4	33,5
853,9	-6,5
854,3	12,9
854,7	16,7
855,2	-1,1
855,6	6,7
856	22,7
856,4	11,1
856,9	32,3
857,3	12,1
857,7	21,7
858,2	23,3
858,6	49,3
859	17,3
859,4	8,5
859,9	-5,9
860,3	2,3
860,7	14,7
861,1	33,9
861,6	-3,9
862	17,1
862,4	2,3
862,9	12,9
863,3	13,5
863,7	23,7
864,1	-7,7
864,6	19,3
865	34,9
865,4	6,5
865,9	17,5
866,3	7,5
866,7	49,1
867,1	26,5
867,6	28,1
868	15,5
868,4	-11,9
868,8	13,9
869,3	13,7
869,7	35,5
870,1	7,7
870,6	18,3
871	2,3
871,4	21,1
871,8	12,1
872,3	16,5
872,7	16,7
873,1	18,7
873,5	-1,1
874	36,3
874,4	32,5
874,8	-9,9
875,3	4,7
875,7	-12,1
876,1	2,1
876,5	47,5
877	28,7
877,4	29,7
877,8	36,3
878,2	4,3
878,7	12,5
879,1	30,9
879,5	25,3
879,9	22,3
880,4	14,5
880,8	20,1
881,2	6,9
881,7	-9,5
882,1	16,5
882,5	21,5
882,9	10,7
883,4	14,1
883,8	22,5
884,2	8,1
884,6	-1,3
885,1	-5,5
885,5	-5,1
885,9	0,5
886,3	12,1
886,8	33,7
887,2	-3,7
887,6	18,5
888	-3,1
888,5	40,9
888,9	16,1
889,3	0,9
889,8	22,9
890,2	9,7
890,6	-13,1
891	6,5
891,5	-4,3
891,9	-11,1
892,3	-7,3
892,7	17,3
893,2	-1,9
893,6	14,1
894	-5,3
894,4	-11,7
894,9	-16,1
895,3	-18,5
895,7	31,9
896,1	40,1
896,6	12,9
897	-1,1
897,4	-1,3
897,8	-0,1
898,3	-4,1
898,7	8,3
899,1	-20,1
899,5	32,1
900	36,9
900,4	-11,7
900,8	1,5
901,2	-0,3
901,7	30,3
902,1	-11,1
902,5	-0,1
902,9	37,5
903,4	-7,9
903,8	3,5
904,2	27,9
904,6	7,1
905,1	-8,1
905,5	-4,7
905,9	-20,1
906,3	-0,1
906,8	-4,9
907,2	6,9
907,6	-14,3
908	3,3
908,5	14,5
908,9	18,7
909,3	-9,1
909,7	26,3
910,2	33,1
910,6	-1,1
911	21,7
911,4	17,7
911,9	13,5
912,3	-7,7
912,7	31,3
913,1	16,5
913,6	7,7
914	0,5
914,4	17,3
914,8	12,5
915,3	-3,5
915,7	15,1
916,1	21,1
916,5	26,9
916,9	-0,3
917,4	-9,5
917,8	8,7
918,2	11,1
918,6	-15,1
919,1	15,9
919,5	4,5
919,9	7,7
920,3	-7,3
920,8	5,5
921,2	-28,9
921,6	-23,3
922	3,5
922,5	-0,1
922,9	1,3
923,3	15,7
923,7	39,9
924,2	9,7
924,6	2,7
925	8,7
925,4	18,7
925,8	4,5
926,3	-13,3
926,7	15,3
927,1	-17,3
927,5	-19,1
928	13,7
928,4	-7,1
928,8	5,5
929,2	-14,9
929,7	32,9
930,1	24,7
930,5	-21,1
930,9	9,9
931,3	-12,3
931,8	7,5
932,2	33,1
932,6	-22,9
933	5,9
933,5	21,5
933,9	-16,1
934,3	16,3
934,7	20,9
935,2	-2,7
935,6	8,3
936	-37,5
936,4	8,3
936,8	17,9
937,3	-16,1
937,7	-7,3
938,1	34,7
938,5	-11,1
939	5,9
939,4	-32,5
939,8	-24,7
940,2	9,1
940,6	36,9
941,1	-6,1
941,5	23,1
941,9	-15,1
942,3	13,1
942,8	-13,1
943,2	-12,5
943,6	2,3
944	-42,7
944,4	13,5
944,9	1,3
945,3	14,3
945,7	11,9
946,1	4,1
946,6	-10,1
947	-25,7
947,4	7,3
947,8	-9,7
948,2	10,3
948,7	-8,3
949,1	14,9
949,5	17,1
949,9	-17,9
950,3	14,7
950,8	-13,3
951,2	-32,1
951,6	4,3
952	10,1
952,5	-25,7
952,9	2,1
953,3	15,1
953,7	16,5
954,1	18,9
954,6	3,1
955	-4,3
955,4	-21,1
955,8	6,7
956,2	39,5
956,7	-15,1
957,1	21,7
957,5	-22,3
957,9	27,3
958,3	52,1
958,8	-7,3
959,2	2,5
959,6	-2,3
960	0,7
960,5	24,1
960,9	19,7
961,3	16,9
961,7	-15,7
962,1	-13,3
962,6	-2,9
963	9,7
963,4	-28,5
963,8	-0,9
964,2	1,1
964,7	11,9
965,1	48,3
965,5	12,3
965,9	39,1
966,3	-19,1
966,8	9,1
967,2	9,7
967,6	19,1
968	-6,7
968,4	18,1
968,9	12,7
969,3	-6,1
969,7	-19,3
970,1	0,5
970,5	-10,7
971	-0,3
971,4	4,3
971,8	-2,5
972,2	15,1
972,6	10,9
973,1	-6,7
973,5	1,7
973,9	11,7
974,3	-15,1
974,7	2,5
975,2	7,7
975,6	-8,5
976	11,9
976,4	-4,3
976,8	10,5
977,3	29,3
977,7	4,5
978,1	-11,9
978,5	-7,5
978,9	-9,5
979,4	1,3
979,8	-6,1
980,2	9,5
980,6	-4,3
981	-6,3
981,5	11,7
981,9	36,5
982,3	19,3
982,7	16,7
983,1	10,1
983,6	7,1
984	-11,7
984,4	6,7
984,8	1,9
985,2	-31,5
985,6	17,9
986,1	17,5
986,5	-19,5
986,9	24,1
987,3	16,3
987,7	-7,9
988,2	-8,5
988,6	28,1
989	28,7
989,4	-0,1
989,8	-6,1
990,3	-4,1
990,7	-1,1
991,1	10,1
991,5	40,1
991,9	-8,1
992,3	-14,3
992,8	-10,9
993,2	31,1
993,6	-35,1
994	25,1
994,4	-11,3
994,9	-9,3
995,3	-0,7
995,7	-18,5
996,1	39,7
996,5	7,1
996,9	3,7
997,4	18,1
997,8	15,5
998,2	-11,5
998,6	6,9
999	6,3
999,5	0,7
999,9	-2,3
1000,3	-1,3
1000,7	-2,5
1001,1	-22,7
1001,5	-35,1
1002	28,3
1002,4	16,5
1002,8	-6,7
1003,2	-12,5
1003,6	13,1
1004	-3,3
1004,5	28,5
1004,9	14,5
1005,3	25,3
1005,7	-5,5
1006,1	0,7
1006,6	11,7
1007	-11,7
1007,4	4,3
1007,8	-21,1
1008,2	-0,9
1008,6	-24,7
1009,1	-9,3
1009,5	-8,5
1009,9	-8,1
1010,3	-17,5
1010,7	8,7
1011,1	30,9
1011,6	-2,5
1012	10,3
1012,4	10,1
1012,8	-5,7
1013,2	13,1
1013,6	1,9
1014,1	8,7
1014,5	19,3
1014,9	10,1
1015,3	1,5
1015,7	13,9
1016,1	-20,5
1016,6	0,5
1017	-11,1
1017,4	-3,9
1017,8	15,5
1018,2	2,5
1018,6	-4,9
1019,1	33,9
1019,5	20,9
1019,9	7,9
1020,3	21,3
1020,7	6,3
1021,1	-13,9
1021,6	-4,3
1022	15,1
1022,4	3,5
1022,8	3,9
1023,2	10,1
1023,6	6,3
1024,1	-44,1
1024,5	5,7
1024,9	3,3
1025,3	-15,1
1025,7	-9,3
1026,1	-27,7
1026,6	29,3
1027	-2,7
1027,4	28,1
1027,8	-39,9
1028,2	-9,9
1028,6	-5,1
1029	-9,3
1029,5	3,3
1029,9	-7,7
1030,3	4,5
1030,7	7,7
1031,1	-1,5
1031,5	25,9
1032	31,7
1032,4	10,1
1032,8	2,5
1033,2	33,1
1033,6	3,9
1034	-4,5
1034,4	-19,3
1034,9	-0,9
1035,3	17,1
1035,7	-21,7
1036,1	-21,1
1036,5	28,7
1036,9	23,9
1037,4	16,1
1037,8	-5,1
1038,2	-27,3
1038,6	1,3
1039	-17,5
1039,4	0,9
1039,8	-23,7
1040,3	-8,5
1040,7	-8,3
1041,1	43,9
1041,5	-7,7
1041,9	1,1
1042,3	18,7
1042,7	-21,3
1043,2	7,1
1043,6	-16,9
1044	-1,7
1044,4	18,9
1044,8	19,5
1045,2	-8,9
1045,6	12,7
1046,1	16,9
1046,5	20,1
1046,9	17,3
1047,3	-3,5
1047,7	-23,5
1048,1	9,7
1048,5	27,3
1049	6,7
1049,4	-7,9
1049,8	-11,1
1050,2	6,7
1050,6	5,1
1051	-20,7
1051,4	9,3
1051,9	19,1
1052,3	2,1
1052,7	-15,3
1053,1	-25,7
1053,5	16,5
1053,9	14,3
1054,3	-26,5
1054,8	-23,9
1055,2	-14,9
1055,6	4,3
1056	16,1
1056,4	-7,1
1056,8	3,1
1057,2	4,9
1057,6	-31,3
1058,1	-14,9
1058,5	-7,9
1058,9	-7,5
1059,3	8,1
1059,7	0,7
1060,1	-17,1
1060,5	-48,7
1061	9,5
1061,4	19,3
1061,8	8,9
1062,2	10,1
1062,6	1,1
1063	-4,1
1063,4	41,5
1063,8	1,5
1064,3	1,9
1064,7	-23,9
1065,1	14,5
1065,5	5,5
1065,9	39,7
1066,3	14,9
1066,7	4,5
1067,1	7,7
1067,6	13,9
1068	-0,7
1068,4	-2,1
1068,8	5,1
1069,2	3,7
1069,6	-9,3
1070	23,1
1070,4	-14,1
1070,9	9,9
1071,3	23,5
1071,7	-19,5
1072,1	19,9
1072,5	-15,5
1072,9	26,3
1073,3	21,1
1073,7	43,5
1074,2	5,3
1074,6	-8,7
1075	-26,7
1075,4	-0,5
1075,8	-5,7
1076,2	-17,1
1076,6	23,3
1077	-5,1
1077,5	12,3
1077,9	-13,7
1078,3	-6,1
1078,7	1,1
1079,1	10,9
1079,5	9,3
1079,9	9,7
1080,3	15,1
1080,7	12,3
1081,2	14,1
1081,6	24,1
1082	17,1
1082,4	2,5
1082,8	-5,9
1083,2	-7,7
1083,6	-1,1
1084	-24,7
1084,5	-5,5
1084,9	31,9
1085,3	21,7
1085,7	-11,7
1086,1	38,5
1086,5	20,1
1086,9	9,7
1087,3	-21,3
1087,7	18,5
1088,2	-5,1
1088,6	-24,3
1089	-25,1
1089,4	-7,7
1089,8	-2,9
1090,2	-10,9
1090,6	-12,7
1091	-16,3
1091,4	10,1
1091,9	-13,5
1092,3	-24,7
1092,7	27,5
1093,1	6,5
1093,5	-42,1
1093,9	-3,1
1094,3	19,1
1094,7	-11,1
1095,1	-25,9
1095,5	-3,3
1096	-4,5
1096,4	15,9
1096,8	-6,5
1097,2	24,3
1097,6	11,3
1098	-12,9
1098,4	-11,9
1098,8	-14,7
1099,2	13,7
1099,6	-18,1
1100,1	1,9
1100,5	33,1
1100,9	-11,1
1101,3	18,9
1101,7	-4,1
1102,1	-4,5
1102,5	-3,9
1102,9	-5,1
1103,3	9,7
1103,7	9,1
1104,2	-0,5
1104,6	7,1
1105	9,3
1105,4	0,3
1105,8	-16,9
1106,2	-15,5
1106,6	3,3
1107	0,3
1107,4	0,1
1107,8	-0,1
1108,3	-1,7
