Data from Subt2_00011.txt Node
Date: Wed Aug 02 19:02:29 MSK 2023
User: vat
Spectrometer: MAYP114033
Trigger mode: 0
Integration Time (sec): 7,000000E-1
Scans to average: 5
Electric dark correction enabled: true
Nonlinearity correction enabled: false
Boxcar width: 0
XAxis mode: Wavelengths
Number of Pixels in Spectrum: 2068
>>>>>Begin Spectral Data<<<<<
199,4	-4,7
199,9	0,5
200,4	-1,3
200,8	0,5
201,3	14,9
201,8	7,1
202,2	8,5
202,7	-10,1
203,2	11,1
203,6	-13,1
204,1	-5,9
204,6	-9,1
205	7,7
205,5	23,3
206	-24,1
206,4	19,7
206,9	-4,9
207,4	13,9
207,8	11,7
208,3	10,7
208,8	-28,9
209,2	-10,3
209,7	6,7
210,2	-7,7
210,6	20,7
211,1	1,9
211,5	-16,9
212	13,5
212,5	7,7
212,9	-19,5
213,4	10,7
213,9	27,7
214,3	-22,5
214,8	15,7
215,3	10,1
215,7	10,1
216,2	16,7
216,7	3,1
217,1	-15,3
217,6	18,1
218,1	14,7
218,5	-11,1
219	-4,3
219,5	9,7
219,9	-6,9
220,4	-6,5
220,9	-3,3
221,3	-14,9
221,8	24,9
222,3	-15,1
222,7	5,3
223,2	-5,3
223,6	-18,1
224,1	11,5
224,6	16,9
225	-3,9
225,5	8,1
226	14,5
226,4	-1,5
226,9	-8,9
227,4	-10,3
227,8	34,7
228,3	10,5
228,8	20,7
229,2	-6,3
229,7	39,5
230,2	39,1
230,6	57,7
231,1	18,5
231,5	32,3
232	9,7
232,5	15,5
232,9	-12,5
233,4	-7,7
233,9	21,3
234,3	12,9
234,8	35,1
235,3	1,1
235,7	-0,3
236,2	5,3
236,7	16,3
237,1	3,1
237,6	-7,7
238,1	19,1
238,5	-5,7
239	-6,3
239,4	-0,9
239,9	9,9
240,4	-16,3
240,8	17,5
241,3	-8,3
241,8	13,3
242,2	-15,3
242,7	-3,5
243,2	0,7
243,6	10,7
244,1	24,1
244,6	14,7
245	6,9
245,5	-2,7
245,9	20,3
246,4	2,5
246,9	9,7
247,3	24,3
247,8	15,7
248,3	10,9
248,7	-24,7
249,2	-7,7
249,7	-8,5
250,1	13,1
250,6	4,7
251	23,9
251,5	16,1
252	18,9
252,4	11,9
252,9	25,5
253,4	-12,1
253,8	12,7
254,3	21,3
254,8	12,7
255,2	-19,3
255,7	32,3
256,1	-5,3
256,6	2,5
257,1	4,1
257,5	27,5
258	-8,3
258,5	-12,5
258,9	5,5
259,4	-17,5
259,9	0,7
260,3	-18,3
260,8	0,5
261,2	-1,3
261,7	2,7
262,2	18,5
262,6	26,1
263,1	36,3
263,6	32,3
264	-16,9
264,5	-6,1
264,9	19,3
265,4	54,3
265,9	-10,1
266,3	-7,5
266,8	18,5
267,3	-31,3
267,7	28,9
268,2	-8,7
268,7	24,7
269,1	10,1
269,6	5,3
270	-3,3
270,5	-20,9
271	31,9
271,4	23,1
271,9	9,7
272,4	-16,1
272,8	16,3
273,3	-2,9
273,7	7,5
274,2	-7,3
274,7	32,3
275,1	11,7
275,6	4,1
276,1	27,5
276,5	31,7
277	6,9
277,4	14,3
277,9	-24,7
278,4	14,3
278,8	8,3
279,3	-3,3
279,8	17,1
280,2	5,5
280,7	15,3
281,1	-7,5
281,6	2,1
282,1	-11,1
282,5	15,1
283	35,3
283,4	23,7
283,9	11,3
284,4	-29,3
284,8	26,3
285,3	0,7
285,8	14,1
286,2	17,1
286,7	19,9
287,1	-20,3
287,6	-28,1
288,1	-29,5
288,5	-0,7
289	30,3
289,5	16,1
289,9	10,3
290,4	19,1
290,8	-8,7
291,3	18,7
291,8	12,1
292,2	0,1
292,7	3,5
293,1	13,9
293,6	5,5
294,1	17,3
294,5	12,3
295	31,1
295,5	6,7
295,9	41,9
296,4	29,7
296,8	-13,7
297,3	-2,9
297,8	29,9
298,2	12,9
298,7	-5,1
299,1	-31,5
299,6	-5,5
300,1	-24,9
300,5	13,1
301	0,3
301,5	-18,7
301,9	-17,7
302,4	14,9
302,8	10,3
303,3	-14,5
303,8	5,5
304,2	-1,9
304,7	23,9
305,1	-0,7
305,6	-16,5
306,1	-0,1
306,5	-0,5
307	-11,7
307,4	9,1
307,9	20,1
308,4	9,5
308,8	-12,1
309,3	18,5
309,8	-8,3
310,2	-1,9
310,7	10,7
311,1	-21,7
311,6	-16,3
312,1	2,5
312,5	-14,7
313	-46,7
313,4	30,7
313,9	-0,3
314,4	22,3
314,8	15,7
315,3	0,9
315,7	11,5
316,2	13,9
316,7	9,7
317,1	47,5
317,6	0,7
318	-12,1
318,5	23,3
319	3,7
319,4	-8,5
319,9	-28,9
320,3	-15,5
320,8	-9,1
321,3	-20,3
321,7	24,7
322,2	11,3
322,6	18,9
323,1	16,3
323,6	23,7
324	-16,1
324,5	24,3
324,9	11,1
325,4	4,5
325,9	8,3
326,3	-17,1
326,8	11,1
327,2	-19,7
327,7	1,3
328,2	41,5
328,6	18,3
329,1	42,3
329,5	2,9
330	24,5
330,5	23,1
330,9	18,1
331,4	15,3
331,8	2,5
332,3	-0,7
332,8	33,9
333,2	-18,9
333,7	11,9
334,1	10,9
334,6	17,3
335,1	19,1
335,5	24,7
336	8,3
336,4	5,1
336,9	29,5
337,4	10,3
337,8	11,3
338,3	-19,3
338,7	9,9
339,2	23,1
339,7	19,1
340,1	30,7
340,6	30,9
341	10,9
341,5	22,5
342	25,9
342,4	12,7
342,9	10,7
343,3	38,1
343,8	-12,9
344,2	11,7
344,7	12,7
345,2	24,9
345,6	-28,3
346,1	47,5
346,5	9,3
347	4,1
347,5	12,5
347,9	23,7
348,4	21,1
348,8	23,9
349,3	5,3
349,8	32,5
350,2	38,7
350,7	51,1
351,1	82,7
351,6	74,7
352	72,7
352,5	74,9
353	94,7
353,4	124,3
353,9	159,7
354,3	184,7
354,8	227,5
355,3	296,5
355,7	321,5
356,2	384,3
356,6	472,5
357,1	567,1
357,5	655,9
358	752,3
358,5	898,5
358,9	1063,1
359,4	1212,7
359,8	1372,3
360,3	1602,7
360,8	1830,3
361,2	2102,3
361,7	2396,1
362,1	2665,7
362,6	3076,9
363	3447,9
363,5	3853,5
364	4294,3
364,4	4674,7
364,9	5091,3
365,3	5532,9
365,8	6002,1
366,3	6385,9
366,7	6698,7
367,2	7034,9
367,6	7261,7
368,1	7384,7
368,5	7567,9
369	7606,5
369,5	7588,7
369,9	7526,1
370,4	7403,7
370,8	7227,7
371,3	6990,5
371,7	6795,9
372,2	6426,3
372,7	6057,9
373,1	5750,1
373,6	5434,1
374	5029,9
374,5	4675,1
374,9	4312,7
375,4	4029,7
375,9	3716,5
376,3	3427,1
376,8	3165,1
377,2	2891,7
377,7	2603,1
378,2	2407,5
378,6	2209,5
379,1	1966,3
379,5	1813,5
380	1677,1
380,4	1520,1
380,9	1425,7
381,4	1282,1
381,8	1170,9
382,3	1068,5
382,7	987,3
383,2	923,1
383,6	850,7
384,1	795,7
384,6	724,7
385	681,5
385,5	623,3
385,9	601,3
386,4	548,9
386,8	469,7
387,3	479,3
387,7	427,7
388,2	383,1
388,7	372,3
389,1	342,1
389,6	325,9
390	288,5
390,5	278,3
390,9	248,5
391,4	218,5
391,9	223,7
392,3	183,9
392,8	182,1
393,2	168,5
393,7	168,3
394,1	188,7
394,6	148,9
395,1	133,3
395,5	137,7
396	112,9
396,4	93,9
396,9	109,9
397,3	98,1
397,8	94,7
398,2	120,1
398,7	77,9
399,2	98,1
399,6	92,3
400,1	66,7
400,5	87,3
401	44,7
401,4	40,9
401,9	74,9
402,4	14,3
402,8	61,3
403,3	53,3
403,7	42,7
404,2	42,7
404,6	58,7
405,1	26,7
405,5	60,7
406	22,9
406,5	51,9
406,9	33,3
407,4	27,9
407,8	29,5
408,3	27,3
408,7	27,1
409,2	41,7
409,6	59,7
410,1	39,7
410,6	2,9
411	28,7
411,5	61,3
411,9	48,5
412,4	69,7
412,8	45,1
413,3	17,9
413,7	52,7
414,2	40,3
414,7	43,1
415,1	41,5
415,6	44,5
416	37,3
416,5	63,1
416,9	16,9
417,4	60,5
417,8	88,9
418,3	52,5
418,8	54,9
419,2	54,9
419,7	70,5
420,1	34,5
420,6	56,7
421	73,1
421,5	45,9
421,9	94,3
422,4	39,9
422,8	74,9
423,3	54,1
423,8	49,5
424,2	96,7
424,7	62,7
425,1	42,5
425,6	69,5
426	81,1
426,5	55,5
426,9	61,1
427,4	55,5
427,9	68,5
428,3	78,9
428,8	100,7
429,2	77,5
429,7	100,5
430,1	74,1
430,6	79,3
431	95,1
431,5	87,1
431,9	89,9
432,4	74,7
432,8	84,7
433,3	120,3
433,8	114,9
434,2	112,9
434,7	127,3
435,1	101,3
435,6	114,9
436	108,5
436,5	140,7
436,9	131,7
437,4	149,7
437,8	136,5
438,3	144,3
438,8	151,9
439,2	127,7
439,7	155,1
440,1	139,9
440,6	158,9
441	142,9
441,5	166,7
441,9	172,1
442,4	194,9
442,8	171,9
443,3	177,3
443,7	213,9
444,2	215,7
444,7	233,5
445,1	236,1
445,6	266,7
446	248,5
446,5	270,5
446,9	287,9
447,4	296,3
447,8	284,9
448,3	285,9
448,7	300,7
449,2	316,1
449,6	306,7
450,1	350,5
450,6	326,5
451	345,7
451,5	349,7
451,9	371,1
452,4	379,9
452,8	409,3
453,3	389,3
453,7	396,5
454,2	435,9
454,6	444,5
455,1	465,3
455,5	467,3
456	485,1
456,4	505,9
456,9	516,9
457,3	535,7
457,8	532,5
458,3	598,1
458,7	623,9
459,2	587,7
459,6	612,5
460,1	611,5
460,5	648,3
461	661,7
461,4	710,3
461,9	699,1
462,3	708,7
462,8	739,1
463,2	717,5
463,7	746,3
464,1	760,3
464,6	818,3
465	777,1
465,5	843,3
466	827,1
466,4	855,5
466,9	887,3
467,3	902,1
467,8	932,5
468,2	926,5
468,7	925,5
469,1	963,5
469,6	971,3
470	962,1
470,5	987,3
470,9	1027,3
471,4	1028,1
471,8	1040,1
472,3	1082,9
472,7	1069,3
473,2	1087,3
473,6	1122,5
474,1	1154,5
474,5	1118,7
475	1187,1
475,4	1162,9
475,9	1196,1
476,4	1154,1
476,8	1246,1
477,3	1211,1
477,7	1235,9
478,2	1235,9
478,6	1235,9
479,1	1262,5
479,5	1257,5
480	1283,5
480,4	1265,3
480,9	1287,3
481,3	1280,9
481,8	1278,7
482,2	1290,3
482,7	1333,5
483,1	1349,1
483,6	1346,7
484	1351,7
484,5	1342,5
484,9	1368,5
485,4	1330,1
485,8	1328,1
486,3	1355,5
486,7	1378,3
487,2	1362,7
487,6	1381,5
488,1	1371,1
488,5	1381,9
489	1384,1
489,4	1384,9
489,9	1397,5
490,4	1358,9
490,8	1407,9
491,3	1354,3
491,7	1414,9
492,2	1380,7
492,6	1372,7
493,1	1381,5
493,5	1367,7
494	1371,1
494,4	1376,9
494,9	1393,7
495,3	1389,1
495,8	1361,1
496,2	1345,5
496,7	1355,7
497,1	1387,1
497,6	1349,7
498	1316,9
498,5	1326,5
498,9	1340,3
499,4	1329,9
499,8	1344,1
500,3	1331,3
500,7	1341,7
501,2	1330,1
501,6	1279,3
502,1	1285,7
502,5	1290,9
503	1288,3
503,4	1266,9
503,9	1280,9
504,3	1267,1
504,8	1284,7
505,2	1263,9
505,7	1258,5
506,1	1236,9
506,6	1230,9
507	1216,7
507,5	1244,9
507,9	1225,9
508,4	1199,9
508,8	1208,3
509,3	1182,7
509,7	1221,3
510,2	1192,9
510,6	1182,9
511,1	1167,7
511,5	1191,3
512	1153,3
512,4	1162,3
512,9	1164,9
513,3	1104,7
513,8	1138,5
514,2	1126,9
514,7	1121,1
515,1	1130,9
515,6	1133,5
516	1090,9
516,5	1082,7
516,9	1081,7
517,4	1049,7
517,8	1042,3
518,3	1045,9
518,7	1041,1
519,2	1055,5
519,6	1012,9
520,1	1018,9
520,5	1038,3
521	989,5
521,4	990,9
521,9	973,1
522,3	971,5
522,8	969,3
523,2	979,5
523,7	957,5
524,1	920,5
524,6	923,3
525	921,3
525,5	925,3
525,9	934,5
526,4	933,7
526,8	901,1
527,3	855,7
527,7	900,3
528,2	855,1
528,6	822,7
529,1	868,5
529,5	864,5
530	832,5
530,4	834,3
530,9	828,9
531,3	829,3
531,8	822,3
532,2	783,5
532,6	780,3
533,1	798,1
533,5	801,3
534	782,1
534,4	766,1
534,9	776,3
535,3	728,1
535,8	774,7
536,2	732,7
536,7	734,1
537,1	766,1
537,6	708,7
538	711,3
538,5	695,1
538,9	694,1
539,4	711,5
539,8	732,5
540,3	686,3
540,7	664,9
541,2	651,7
541,6	650,3
542,1	663,3
542,5	642,9
543	634,9
543,4	637,1
543,9	655,3
544,3	635,3
544,8	604,7
545,2	611,7
545,7	641,9
546,1	592,1
546,5	628,5
547	616,7
547,4	593,3
547,9	603,9
548,3	616,3
548,8	612,3
549,2	543,5
549,7	592,9
550,1	576,5
550,6	573,3
551	569,5
551,5	576,7
551,9	550,5
552,4	539,7
552,8	559,5
553,3	515,9
553,7	536,1
554,2	527,5
554,6	518,5
555,1	508,7
555,5	524,9
555,9	508,7
556,4	522,9
556,8	503,7
557,3	476,1
557,7	496,1
558,2	514,7
558,6	490,5
559,1	485,3
559,5	491,1
560	461,5
560,4	482,1
560,9	469,1
561,3	499,3
561,8	446,5
562,2	434,7
562,7	430,7
563,1	439,3
563,6	436,5
564	473,9
564,4	432,5
564,9	458,5
565,3	444,7
565,8	414,9
566,2	432,3
566,7	431,5
567,1	430,5
567,6	433,3
568	427,3
568,5	399,3
568,9	414,3
569,4	403,9
569,8	382,5
570,3	401,3
570,7	417,5
571,1	398,3
571,6	430,9
572	409,5
572,5	415,9
572,9	380,5
573,4	374,7
573,8	393,9
574,3	371,7
574,7	368,3
575,2	376,9
575,6	374,7
576,1	409,9
576,5	362,9
576,9	385,7
577,4	389,1
577,8	375,1
578,3	332,9
578,7	346,5
579,2	404,9
579,6	326,3
580,1	362,1
580,5	360,5
581	337,9
581,4	324,7
581,9	358,3
582,3	334,7
582,7	328,3
583,2	330,7
583,6	330,5
584,1	322,9
584,5	350,1
585	319,9
585,4	320,5
585,9	328,5
586,3	308,7
586,8	347,5
587,2	338,3
587,6	294,3
588,1	290,3
588,5	320,1
589	305,1
589,4	276,3
589,9	314,5
590,3	272,3
590,8	290,3
591,2	289,5
591,7	277,7
592,1	313,3
592,5	325,5
593	307,3
593,4	306,9
593,9	289,7
594,3	312,9
594,8	270,3
595,2	283,3
595,7	282,9
596,1	284,9
596,6	281,9
597	261,5
597,4	257,3
597,9	249,9
598,3	274,7
598,8	277,1
599,2	280,9
599,7	282,1
600,1	244,3
600,6	271,3
601	261,3
601,4	249,5
601,9	304,5
602,3	258,9
602,8	263,3
603,2	237,5
603,7	262,7
604,1	273,9
604,6	245,5
605	266,9
605,4	244,7
605,9	268,9
606,3	251,1
606,8	210,7
607,2	236,1
607,7	214,3
608,1	247,9
608,6	220,9
609	198,7
609,4	239,9
609,9	263,5
610,3	222,9
610,8	250,3
611,2	228,5
611,7	223,7
612,1	232,7
612,6	214,1
613	216,7
613,4	209,9
613,9	229,3
614,3	216,7
614,8	261,1
615,2	180,1
615,7	194,5
616,1	206,7
616,6	198,7
617	194,1
617,4	219,7
617,9	212,9
618,3	234,7
618,8	195,3
619,2	184,3
619,7	209,7
620,1	224,9
620,5	202,1
621	220,1
621,4	222,7
621,9	223,5
622,3	202,5
622,8	215,9
623,2	210,7
623,6	205,1
624,1	194,5
624,5	219,5
625	198,7
625,4	192,7
625,9	172,1
626,3	156,5
626,8	184,7
627,2	210,3
627,6	184,7
628,1	197,9
628,5	137,3
629	226,7
629,4	181,1
629,9	182,5
630,3	159,7
630,7	166,5
631,2	201,5
631,6	178,5
632,1	157,1
632,5	179,5
633	183,5
633,4	174,9
633,8	167,9
634,3	177,1
634,7	197,5
635,2	145,5
635,6	157,1
636,1	169,7
636,5	143,9
636,9	147,7
637,4	156,5
637,8	167,5
638,3	154,5
638,7	181,1
639,2	128,9
639,6	147,1
640	141,1
640,5	131,1
640,9	149,3
641,4	174,1
641,8	134,7
642,2	188,7
642,7	129,3
643,1	185,3
643,6	166,9
644	144,9
644,5	184,3
644,9	147,1
645,3	164,7
645,8	134,1
646,2	169,3
646,7	167,7
647,1	144,5
647,6	155,3
648	182,5
648,4	144,3
648,9	165,5
649,3	171,5
649,8	163,5
650,2	160,5
650,6	137,7
651,1	131,3
651,5	119,9
652	114,9
652,4	173,1
652,9	162,9
653,3	125,1
653,7	151,9
654,2	141,7
654,6	180,7
655,1	144,3
655,5	153,1
655,9	122,7
656,4	138,1
656,8	129,9
657,3	139,9
657,7	146,5
658,2	129,1
658,6	139,3
659	170,5
659,5	139,9
659,9	139,9
660,4	115,1
660,8	105,7
661,2	143,9
661,7	104,3
662,1	146,9
662,6	97,1
663	141,1
663,4	146,9
663,9	131,5
664,3	128,3
664,8	144,9
665,2	126,3
665,6	108,9
666,1	127,9
666,5	130,1
667	109,1
667,4	107,7
667,9	118,7
668,3	121,7
668,7	127,1
669,2	130,3
669,6	104,3
670,1	115,3
670,5	130,3
670,9	109,5
671,4	107,5
671,8	110,1
672,3	118,1
672,7	96,5
673,1	116,9
673,6	100,1
674	115,9
674,5	102,9
674,9	103,1
675,3	116,3
675,8	143,3
676,2	106,7
676,7	126,3
677,1	109,1
677,5	89,1
678	90,9
678,4	111,7
678,9	116,5
679,3	94,1
679,7	103,5
680,2	119,5
680,6	157,7
681,1	103,5
681,5	135,5
681,9	103,5
682,4	86,5
682,8	100,9
683,3	134,5
683,7	86,3
684,1	88,3
684,6	107,9
685	99,3
685,5	94,5
685,9	118,7
686,3	117,3
686,8	65,7
687,2	93,3
687,7	84,5
688,1	92,1
688,5	84,5
689	107,9
689,4	77,3
689,9	95,3
690,3	120,5
690,7	114,7
691,2	102,9
691,6	126,9
692	136,9
692,5	84,1
692,9	88,7
693,4	86,9
693,8	90,9
694,2	96,1
694,7	98,9
695,1	63,1
695,6	63,1
696	81,9
696,4	80,3
696,9	86,3
697,3	81,1
697,8	91,5
698,2	80,1
698,6	103,3
699,1	93,1
699,5	105,7
699,9	88,3
700,4	104,3
700,8	106,7
701,3	87,9
701,7	63,1
702,1	107,3
702,6	74,3
703	78,5
703,5	91,7
703,9	108,3
704,3	94,3
704,8	81,1
705,2	107,3
705,6	63,1
706,1	93,5
706,5	91,9
707	72,5
707,4	98,5
707,8	102,7
708,3	112,7
708,7	112,9
709,2	94,3
709,6	84,9
710	105,1
710,5	74,1
710,9	92,7
711,3	51,7
711,8	93,5
712,2	84,9
712,7	89,3
713,1	106,7
713,5	90,1
714	90,9
714,4	67,5
714,8	97,5
715,3	108,5
715,7	67,9
716,2	114,7
716,6	77,7
717	98,7
717,5	49,3
717,9	107,1
718,3	98,3
718,8	65,5
719,2	88,9
719,7	72,9
720,1	79,3
720,5	61,7
721	106,3
721,4	51,3
721,8	51,9
722,3	76,9
722,7	71,9
723,2	86,5
723,6	83,1
724	54,7
724,5	62,9
724,9	101,7
725,3	45,1
725,8	91,7
726,2	39,5
726,7	62,5
727,1	50,7
727,5	64,7
728	77,7
728,4	37,7
728,8	70,9
729,3	73,1
729,7	92,7
730,1	88,9
730,6	68,3
731	50,7
731,5	72,7
731,9	92,3
732,3	58,3
732,8	56,1
733,2	68,3
733,6	110,5
734,1	70,9
734,5	55,9
734,9	64,7
735,4	74,9
735,8	94,7
736,3	77,7
736,7	70,3
737,1	53,7
737,6	94,7
738	62,9
738,4	50,5
738,9	73,9
739,3	90,1
739,7	80,9
740,2	77,3
740,6	77,9
741,1	62,7
741,5	80,9
741,9	85,9
742,4	49,7
742,8	94,7
743,2	80,9
743,7	77,9
744,1	67,5
744,5	70,5
745	76,3
745,4	65,7
745,8	33,5
746,3	69,5
746,7	50,1
747,2	71,1
747,6	74,5
748	21,7
748,5	89,5
748,9	90,9
749,3	57,9
749,8	83,5
750,2	75,5
750,6	63,5
751,1	85,7
751,5	63,1
751,9	73,5
752,4	87,9
752,8	85,7
753,3	78,1
753,7	80,3
754,1	51,9
754,6	41,7
755	66,5
755,4	80,5
755,9	39,9
756,3	50,1
756,7	75,3
757,2	77,5
757,6	38,1
758	67,9
758,5	81,1
758,9	67,1
759,3	66,3
759,8	62,1
760,2	40,5
760,6	76,7
761,1	48,5
761,5	33,1
761,9	54,3
762,4	60,1
762,8	82,3
763,3	30,3
763,7	52,7
764,1	40,1
764,6	30,5
765	44,9
765,4	81,3
765,9	51,1
766,3	53,3
766,7	29,1
767,2	69,5
767,6	49,3
768	36,3
768,5	40,7
768,9	42,5
769,3	73,1
769,8	50,7
770,2	56,5
770,6	56,9
771,1	45,7
771,5	27,3
771,9	51,3
772,4	47,5
772,8	40,9
773,2	21,3
773,7	38,9
774,1	37,9
774,5	39,1
775	41,7
775,4	46,3
775,8	75,9
776,3	38,5
776,7	46,3
777,1	45,7
777,6	51,7
778	42,3
778,4	82,1
778,9	45,1
779,3	15,9
779,7	88,1
780,2	52,7
780,6	66,9
781	41,9
781,5	46,1
781,9	51,7
782,3	40,1
782,8	49,7
783,2	32,3
783,6	61,9
784,1	36,5
784,5	47,5
784,9	34,5
785,4	38,5
785,8	51,3
786,2	33,5
786,7	29,5
787,1	45,1
787,5	24,3
788	24,1
788,4	66,9
788,8	48,5
789,3	33,3
789,7	48,5
790,1	26,9
790,6	43,1
791	43,9
791,4	29,1
791,9	45,5
792,3	42,5
792,7	55,5
793,2	42,3
793,6	56,3
794	39,5
794,5	34,1
794,9	48,5
795,3	36,5
795,8	20,1
796,2	34,5
796,6	69,5
797,1	59,9
797,5	70,7
797,9	35,1
798,4	37,7
798,8	69,9
799,2	17,5
799,7	30,7
800,1	41,9
800,5	57,5
801	48,5
801,4	59,5
801,8	11,7
802,2	43,7
802,7	9,3
803,1	16,1
803,5	51,5
804	26,9
804,4	29,9
804,8	44,7
805,3	23,3
805,7	33,9
806,1	28,7
806,6	39,3
807	50,3
807,4	39,7
807,9	69,7
808,3	37,9
808,7	32,7
809,2	29,1
809,6	22,7
810	21,9
810,4	24,1
810,9	29,1
811,3	78,5
811,7	40,5
812,2	26,5
812,6	17,5
813	34,5
813,5	49,1
813,9	27,9
814,3	27,9
814,8	49,9
815,2	37,1
815,6	18,3
816,1	50,9
816,5	51,7
816,9	36,3
817,3	15,1
817,8	36,5
818,2	6,9
818,6	43,3
819,1	37,5
819,5	33,3
819,9	5,3
820,4	40,5
820,8	18,3
821,2	44,9
821,7	70,3
822,1	25,3
822,5	26,1
822,9	24,9
823,4	28,5
823,8	31,7
824,2	18,5
824,7	59,5
825,1	22,9
825,5	16,3
826	2,3
826,4	25,3
826,8	10,1
827,3	26,3
827,7	17,1
828,1	20,3
828,5	4,5
829	46,7
829,4	5,7
829,8	31,3
830,3	19,3
830,7	37,5
831,1	3,3
831,6	-17,3
832	18,3
832,4	21,9
832,8	0,9
833,3	52,5
833,7	42,9
834,1	19,3
834,6	25,7
835	22,3
835,4	16,9
835,8	34,1
836,3	42,5
836,7	45,5
837,1	27,5
837,6	24,7
838	4,1
838,4	36,7
838,9	34,5
839,3	8,5
839,7	21,5
840,1	29,9
840,6	15,1
841	21,1
841,4	12,7
841,9	3,7
842,3	31,1
842,7	14,5
843,1	5,7
843,6	33,3
844	66,3
844,4	11,9
844,9	11,5
845,3	16,1
845,7	-22,5
846,2	24,7
846,6	-7,5
847	26,5
847,4	31,9
847,9	48,7
848,3	34,5
848,7	-7,5
849,2	3,5
849,6	33,7
850	11,1
850,4	32,1
850,9	17,1
851,3	35,5
851,7	18,5
852,2	15,5
852,6	42,1
853	30,7
853,4	39,1
853,9	20,3
854,3	19,5
854,7	11,1
855,2	52,7
855,6	8,3
856	8,1
856,4	16,7
856,9	16,5
857,3	17,9
857,7	-8,5
858,2	18,7
858,6	7,5
859	0,1
859,4	27,7
859,9	15,9
860,3	10,7
860,7	21,5
861,1	-0,7
861,6	-16,3
862	29,1
862,4	5,3
862,9	24,1
863,3	19,3
863,7	15,9
864,1	22,3
864,6	25,9
865	22,1
865,4	59,5
865,9	-16,1
866,3	12,7
866,7	-1,9
867,1	29,5
867,6	29,9
868	17,3
868,4	12,3
868,8	5,1
869,3	-0,9
869,7	6,3
870,1	33,1
870,6	3,1
871	-13,9
871,4	4,7
871,8	-4,7
872,3	-16,5
872,7	-14,3
873,1	17,3
873,5	-0,5
874	-1,1
874,4	-13,5
874,8	6,1
875,3	15,3
875,7	21,5
876,1	16,9
876,5	17,7
877	33,3
877,4	-8,5
877,8	5,9
878,2	-1,5
878,7	15,7
879,1	23,3
879,5	3,7
879,9	3,7
880,4	15,7
880,8	12,3
881,2	1,9
881,7	21,1
882,1	-5,1
882,5	53,7
882,9	-2,1
883,4	25,5
883,8	3,7
884,2	19,1
884,6	6,5
885,1	8,5
885,5	17,9
885,9	18,3
886,3	1,9
886,8	-33,5
887,2	11,3
887,6	9,7
888	21,1
888,5	17,5
888,9	-0,3
889,3	-9,7
889,8	19,5
890,2	-6,5
890,6	0,7
891	17,3
891,5	3,9
891,9	3,3
892,3	16,7
892,7	24,7
893,2	6,7
893,6	33,3
894	45,7
894,4	-2,1
894,9	26,3
895,3	-17,5
895,7	26,9
896,1	1,1
896,6	11,7
897	2,5
897,4	4,9
897,8	26,3
898,3	25,7
898,7	-23,3
899,1	13,9
899,5	24,1
900	29,1
900,4	31,5
900,8	31,1
901,2	-1,1
901,7	14,7
902,1	1,7
902,5	-5,3
902,9	7,5
903,4	15,7
903,8	12,7
904,2	15,3
904,6	24,9
905,1	4,7
905,5	15,7
905,9	6,1
906,3	-8,1
906,8	16,7
907,2	28,1
907,6	-18,9
908	-8,3
908,5	5,9
908,9	1,5
909,3	16,9
909,7	53,7
910,2	12,3
910,6	19,5
911	1,5
911,4	30,7
911,9	30,5
912,3	2,9
912,7	19,7
913,1	-19,7
913,6	-0,7
914	18,1
914,4	42,7
914,8	10,7
915,3	6,3
915,7	16,5
916,1	31,9
916,5	-13,7
916,9	41,7
917,4	-1,3
917,8	36,7
918,2	19,7
918,6	11,1
919,1	8,7
919,5	32,7
919,9	-4,7
920,3	21,7
920,8	10,3
921,2	-3,5
921,6	-23,7
922	-15,7
922,5	-6,5
922,9	0,3
923,3	0,1
923,7	7,1
924,2	19,9
924,6	3,3
925	9,9
925,4	-5,1
925,8	4,1
926,3	16,3
926,7	-1,1
927,1	7,1
927,5	14,3
928	21,3
928,4	13,7
928,8	12,7
929,2	12,5
929,7	3,1
930,1	-2,3
930,5	10,1
930,9	5,1
931,3	17,7
931,8	16,9
932,2	7,7
932,6	32,7
933	0,7
933,5	11,3
933,9	3,9
934,3	-13,7
934,7	7,1
935,2	-4,1
935,6	-7,3
936	-11,1
936,4	34,7
936,8	-4,7
937,3	-19,3
937,7	21,5
938,1	-2,9
938,5	16,7
939	20,7
939,4	2,7
939,8	-2,7
940,2	14,9
940,6	-4,1
941,1	18,7
941,5	24,9
941,9	-13,3
942,3	15,5
942,8	34,3
943,2	-6,9
943,6	-4,1
944	-1,5
944,4	7,5
944,9	1,1
945,3	-3,1
945,7	7,7
946,1	3,5
946,6	-6,7
947	24,7
947,4	44,9
947,8	-24,7
948,2	20,9
948,7	-13,1
949,1	-0,9
949,5	-14,9
949,9	34,5
950,3	17,3
950,8	13,7
951,2	24,9
951,6	38,3
952	-6,1
952,5	-0,5
952,9	0,7
953,3	11,9
953,7	3,9
954,1	-3,3
954,6	12,3
955	5,1
955,4	-17,9
955,8	21,1
956,2	44,7
956,7	38,5
957,1	-13,7
957,5	7,3
957,9	-8,3
958,3	7,1
958,8	-5,5
959,2	6,7
959,6	20,1
960	-2,9
960,5	-8,9
960,9	12,9
961,3	18,3
961,7	21,5
962,1	-3,9
962,6	-2,7
963	26,7
963,4	18,1
963,8	-3,5
964,2	36,1
964,7	31,1
965,1	2,9
965,5	10,9
965,9	-18,7
966,3	-9,7
966,8	-20,7
967,2	-7,7
967,6	9,3
968	-0,5
968,4	-18,7
968,9	29,3
969,3	23,9
969,7	29,3
970,1	45,7
970,5	3,1
971	1,3
971,4	0,9
971,8	4,9
972,2	-13,3
972,6	2,7
973,1	-24,5
973,5	22,3
973,9	10,1
974,3	12,1
974,7	7,3
975,2	-12,3
975,6	-28,7
976	-0,7
976,4	25,1
976,8	8,1
977,3	12,3
977,7	19,7
978,1	21,3
978,5	32,3
978,9	-10,3
979,4	21,7
979,8	-4,9
980,2	49,9
980,6	5,3
981	3,3
981,5	-6,9
981,9	20,9
982,3	6,1
982,7	2,3
983,1	40,3
983,6	-12,3
984	11,7
984,4	9,5
984,8	5,1
985,2	-8,5
985,6	21,9
986,1	-1,7
986,5	7,1
986,9	7,3
987,3	1,1
987,7	8,3
988,2	14,7
988,6	13,3
989	-7,9
989,4	-30,7
989,8	10,9
990,3	-1,9
990,7	26,5
991,1	-20,1
991,5	34,9
991,9	15,5
992,3	17,3
992,8	-37,7
993,2	9,7
993,6	-31,5
994	-1,9
994,4	19,1
994,9	19,9
995,3	-12,7
995,7	15,5
996,1	-19,9
996,5	5,7
996,9	8,7
997,4	-17,7
997,8	-20,3
998,2	-32,1
998,6	16,7
999	16,3
999,5	4,1
999,9	-15,7
1000,3	38,3
1000,7	8,1
1001,1	25,3
1001,5	9,5
1002	31,3
1002,4	45,1
1002,8	22,1
1003,2	0,5
1003,6	-12,3
1004	-4,1
1004,5	18,3
1004,9	-2,1
1005,3	0,5
1005,7	-2,9
1006,1	-0,7
1006,6	-15,1
1007	30,1
1007,4	18,9
1007,8	10,7
1008,2	12,3
1008,6	0,5
1009,1	13,9
1009,5	-7,7
1009,9	-2,1
1010,3	-10,5
1010,7	-19,5
1011,1	-1,5
1011,6	-18,5
1012	9,7
1012,4	5,9
1012,8	-13,9
1013,2	-9,7
1013,6	15,3
1014,1	6,7
1014,5	1,1
1014,9	-0,7
1015,3	-2,1
1015,7	19,9
1016,1	15,1
1016,6	1,9
1017	18,9
1017,4	28,3
1017,8	11,3
1018,2	1,7
1018,6	5,3
1019,1	22,3
1019,5	3,3
1019,9	10,9
1020,3	4,5
1020,7	4,5
1021,1	-1,9
1021,6	27,5
1022	0,3
1022,4	23,3
1022,8	10,1
1023,2	7,9
1023,6	12,9
1024,1	34,1
1024,5	-5,5
1024,9	19,9
1025,3	24,9
1025,7	15,9
1026,1	27,1
1026,6	1,7
1027	7,1
1027,4	28,5
1027,8	-21,9
1028,2	20,9
1028,6	40,5
1029	-0,7
1029,5	-11,3
1029,9	24,7
1030,3	-12,3
1030,7	4,9
1031,1	-28,1
1031,5	14,3
1032	9,1
1032,4	8,9
1032,8	-10,3
1033,2	-7,1
1033,6	16,5
1034	7,5
1034,4	-3,1
1034,9	-4,1
1035,3	22,1
1035,7	14,9
1036,1	-11,9
1036,5	11,9
1036,9	-11,9
1037,4	-18,3
1037,8	-4,7
1038,2	13,9
1038,6	-19,1
1039	1,5
1039,4	19,3
1039,8	-20,7
1040,3	2,7
1040,7	14,1
1041,1	0,9
1041,5	-0,1
1041,9	45,7
1042,3	-3,7
1042,7	49,7
1043,2	-20,3
1043,6	-19,5
1044	-4,3
1044,4	4,3
1044,8	-8,3
1045,2	1,5
1045,6	31,5
1046,1	12,5
1046,5	-5,7
1046,9	-4,3
1047,3	15,7
1047,7	29,5
1048,1	-15,3
1048,5	3,1
1049	-27,5
1049,4	3,5
1049,8	11,7
1050,2	4,9
1050,6	17,7
1051	42,7
1051,4	-3,9
1051,9	0,1
1052,3	7,5
1052,7	-0,9
1053,1	29,7
1053,5	-23,5
1053,9	15,5
1054,3	18,1
1054,8	-36,1
1055,2	15,3
1055,6	15,9
1056	-20,1
1056,4	-6,7
1056,8	-3,5
1057,2	9,3
1057,6	5,7
1058,1	0,3
1058,5	10,1
1058,9	8,9
1059,3	-7,7
1059,7	4,9
1060,1	-2,5
1060,5	-11,9
1061	-6,1
1061,4	3,5
1061,8	46,3
1062,2	-8,5
1062,6	-11,1
1063	-18,1
1063,4	37,7
1063,8	8,9
1064,3	-0,7
1064,7	-23,3
1065,1	18,7
1065,5	8,5
1065,9	11,3
1066,3	10,7
1066,7	11,1
1067,1	-11,9
1067,6	39,5
1068	-22,3
1068,4	-11,5
1068,8	12,9
1069,2	-5,7
1069,6	5,7
1070	-8,7
1070,4	-0,1
1070,9	18,5
1071,3	2,9
1071,7	-1,3
1072,1	12,5
1072,5	17,1
1072,9	1,9
1073,3	-19,7
1073,7	10,7
1074,2	14,7
1074,6	11,5
1075	7,3
1075,4	16,3
1075,8	32,7
1076,2	10,7
1076,6	36,3
1077	10,5
1077,5	12,7
1077,9	-4,7
1078,3	5,9
1078,7	28,3
1079,1	9,5
1079,5	1,3
1079,9	26,7
1080,3	6,5
1080,7	18,1
1081,2	7,7
1081,6	-4,3
1082	-26,9
1082,4	4,5
1082,8	-4,9
1083,2	2,9
1083,6	21,5
1084	3,9
1084,5	-14,3
1084,9	40,5
1085,3	4,1
1085,7	-7,1
1086,1	-14,5
1086,5	27,7
1086,9	7,7
1087,3	9,7
1087,7	13,3
1088,2	5,1
1088,6	15,3
1089	10,7
1089,4	-12,9
1089,8	-2,1
1090,2	-7,3
1090,6	7,3
1091	-4,9
1091,4	-15,5
1091,9	-10,3
1092,3	5,3
1092,7	-1,1
1093,1	11,3
1093,5	22,5
1093,9	9,5
1094,3	36,1
1094,7	-17,5
1095,1	-13,7
1095,5	-1,3
1096	9,3
1096,4	-4,3
1096,8	27,7
1097,2	26,5
1097,6	1,3
1098	-2,3
1098,4	-20,9
1098,8	20,7
1099,2	0,1
1099,6	9,1
1100,1	12,5
1100,5	14,9
1100,9	-15,5
1101,3	-13,7
1101,7	-3,9
1102,1	4,9
1102,5	-7,9
1102,9	-8,7
1103,3	14,3
1103,7	-18,5
1104,2	22,3
1104,6	-24,3
1105	0,7
1105,4	21,3
1105,8	5,1
1106,2	18,9
1106,6	9,9
1107	0,5
1107,4	-0,1
1107,8	0,3
1108,3	0,1
