Data from Subt2_00033.txt Node
Date: Wed Aug 02 19:38:50 MSK 2023
User: vat
Spectrometer: MAYP114033
Trigger mode: 0
Integration Time (sec): 7,000000E-1
Scans to average: 5
Electric dark correction enabled: true
Nonlinearity correction enabled: false
Boxcar width: 0
XAxis mode: Wavelengths
Number of Pixels in Spectrum: 2068
>>>>>Begin Spectral Data<<<<<
199,4	0,5
199,9	1,7
200,4	0,5
200,8	1,1
201,3	4,3
201,8	9,5
202,2	-28,1
202,7	2,1
203,2	-11,5
203,6	-16,9
204,1	14,3
204,6	7,3
205	11,9
205,5	6,5
206	19,3
206,4	-10,9
206,9	9,1
207,4	9,9
207,8	3,9
208,3	28,7
208,8	-8,5
209,2	6,5
209,7	0,5
210,2	26,3
210,6	-14,5
211,1	-2,1
211,5	26,5
212	-18,5
212,5	26,5
212,9	-19,7
213,4	-2,9
213,9	3,9
214,3	15,7
214,8	22,3
215,3	5,7
215,7	19,5
216,2	19,5
216,7	-2,1
217,1	-17,7
217,6	-4,5
218,1	-13,1
218,5	-5,9
219	19,9
219,5	-20,7
219,9	-5,5
220,4	14,5
220,9	14,7
221,3	19,9
221,8	24,9
222,3	-4,1
222,7	7,7
223,2	4,5
223,6	10,9
224,1	16,5
224,6	28,1
225	20,7
225,5	-3,7
226	15,3
226,4	-35,7
226,9	-14,5
227,4	-3,1
227,8	-1,9
228,3	27,5
228,8	5,5
229,2	-5,3
229,7	26,9
230,2	1,5
230,6	10,5
231,1	12,9
231,5	8,7
232	-9,3
232,5	18,1
232,9	0,5
233,4	-14,5
233,9	15,1
234,3	6,1
234,8	20,9
235,3	14,9
235,7	11,3
236,2	7,9
236,7	32,9
237,1	39,9
237,6	-0,3
238,1	6,5
238,5	19,5
239	-24,7
239,4	-36,9
239,9	11,9
240,4	-18,5
240,8	-9,3
241,3	0,3
241,8	-2,5
242,2	-10,1
242,7	29,7
243,2	19,1
243,6	-18,1
244,1	1,7
244,6	-9,1
245	-1,3
245,5	10,7
245,9	28,5
246,4	17,5
246,9	15,5
247,3	9,7
247,8	3,9
248,3	-11,7
248,7	-16,1
249,2	10,1
249,7	-1,3
250,1	10,9
250,6	4,1
251	-6,5
251,5	12,9
252	-6,1
252,4	-29,7
252,9	8,9
253,4	1,3
253,8	-2,9
254,3	12,5
254,8	-0,5
255,2	1,1
255,7	3,7
256,1	-6,9
256,6	3,7
257,1	9,7
257,5	-10,3
258	5,3
258,5	1,1
258,9	1,3
259,4	0,5
259,9	24,5
260,3	6,5
260,8	-5,3
261,2	10,5
261,7	-4,1
262,2	7,9
262,6	8,1
263,1	19,3
263,6	-22,1
264	10,5
264,5	24,1
264,9	26,5
265,4	-1,3
265,9	0,9
266,3	-18,1
266,8	-0,3
267,3	9,9
267,7	-7,7
268,2	10,1
268,7	23,9
269,1	-13,1
269,6	17,7
270	-13,9
270,5	4,5
271	33,3
271,4	1,7
271,9	17,9
272,4	-21,1
272,8	5,7
273,3	22,5
273,7	5,3
274,2	-4,3
274,7	-5,9
275,1	-18,1
275,6	-11,5
276,1	-14,9
276,5	-9,1
277	17,1
277,4	6,7
277,9	5,5
278,4	4,1
278,8	16,9
279,3	5,9
279,8	1,1
280,2	12,9
280,7	36,5
281,1	-6,3
281,6	-8,7
282,1	6,5
282,5	15,9
283	5,7
283,4	-15,5
283,9	24,1
284,4	-1,5
284,8	-11,3
285,3	2,3
285,8	8,5
286,2	3,5
286,7	6,9
287,1	1,9
287,6	0,7
288,1	19,7
288,5	-19,7
289	8,5
289,5	7,3
289,9	3,3
290,4	33,3
290,8	-20,9
291,3	0,3
291,8	7,9
292,2	-27,1
292,7	-7,3
293,1	2,3
293,6	-30,5
294,1	3,7
294,5	20,1
295	2,5
295,5	2,9
295,9	12,5
296,4	13,7
296,8	-9,9
297,3	12,5
297,8	-9,5
298,2	31,3
298,7	4,9
299,1	-25,3
299,6	-16,3
300,1	21,3
300,5	40,7
301	23,3
301,5	-4,9
301,9	18,1
302,4	-31,7
302,8	-5,9
303,3	1,5
303,8	19,5
304,2	10,3
304,7	-27,1
305,1	2,5
305,6	28,5
306,1	7,9
306,5	0,5
307	-17,9
307,4	-0,7
307,9	11,3
308,4	8,3
308,8	-28,3
309,3	10,1
309,8	3,7
310,2	-1,3
310,7	20,1
311,1	21,9
311,6	23,7
312,1	23,5
312,5	25,5
313	-2,5
313,4	-25,5
313,9	-5,1
314,4	-2,1
314,8	32,3
315,3	-4,9
315,7	-2,7
316,2	20,7
316,7	22,7
317,1	-6,3
317,6	-0,5
318	-10,3
318,5	-7,7
319	16,3
319,4	0,5
319,9	21,3
320,3	11,5
320,8	45,1
321,3	-14,7
321,7	-1,3
322,2	-14,9
322,6	15,7
323,1	1,5
323,6	23,3
324	-27,5
324,5	0,5
324,9	20,5
325,4	-2,9
325,9	-1,1
326,3	-29,1
326,8	37,1
327,2	9,3
327,7	5,7
328,2	15,3
328,6	-3,5
329,1	-5,7
329,5	8,3
330	9,5
330,5	-1,3
330,9	21,7
331,4	5,9
331,8	-2,5
332,3	5,9
332,8	16,3
333,2	-30,3
333,7	11,7
334,1	-15,7
334,6	10,9
335,1	-7,3
335,5	12,1
336	16,9
336,4	32,3
336,9	11,1
337,4	2,3
337,8	8,5
338,3	-7,7
338,7	1,7
339,2	-16,1
339,7	18,9
340,1	-21,5
340,6	14,5
341	9,7
341,5	-0,5
342	2,9
342,4	-5,1
342,9	13,1
343,3	19,3
343,8	3,9
344,2	45,1
344,7	15,9
345,2	38,9
345,6	28,7
346,1	-5,5
346,5	-17,7
347	-23,3
347,5	21,7
347,9	-10,7
348,4	4,9
348,8	17,3
349,3	-5,5
349,8	15,9
350,2	-1,7
350,7	-7,3
351,1	0,9
351,6	24,9
352	13,5
352,5	10,1
353	17,7
353,4	3,1
353,9	29,7
354,3	-20,9
354,8	42,7
355,3	6,5
355,7	22,7
356,2	14,3
356,6	43,3
357,1	35,1
357,5	46,3
358	50,7
358,5	69,1
358,9	65,3
359,4	87,7
359,8	115,9
360,3	117,1
360,8	126,7
361,2	149,9
361,7	154,3
362,1	176,9
362,6	236,5
363	251,3
363,5	282,7
364	315,1
364,4	348,9
364,9	373,1
365,3	419,7
365,8	448,9
366,3	452,7
366,7	529,3
367,2	526,1
367,6	579,1
368,1	581,3
368,5	576,7
369	613,5
369,5	589,1
369,9	608,5
370,4	601,3
370,8	604,9
371,3	565,3
371,7	533,3
372,2	502,5
372,7	483,5
373,1	462,9
373,6	425,1
374	395,7
374,5	363,7
374,9	371,1
375,4	324,3
375,9	275,7
376,3	301,7
376,8	268,9
377,2	249,9
377,7	195,9
378,2	227,9
378,6	179,9
379,1	172,9
379,5	136,1
380	120,1
380,4	125,9
380,9	128,7
381,4	92,1
381,8	145,9
382,3	81,5
382,7	80,3
383,2	78,1
383,6	108,3
384,1	49,1
384,6	58,7
385	48,3
385,5	60,5
385,9	50,7
386,4	46,7
386,8	40,5
387,3	30,7
387,7	51,7
388,2	52,5
388,7	26,9
389,1	53,3
389,6	29,5
390	27,7
390,5	35,1
390,9	38,7
391,4	45,9
391,9	19,7
392,3	59,3
392,8	2,9
393,2	15,3
393,7	32,3
394,1	29,1
394,6	11,5
395,1	33,1
395,5	14,9
396	18,7
396,4	33,7
396,9	-11,1
397,3	22,5
397,8	31,9
398,2	72,3
398,7	30,9
399,2	29,3
399,6	-14,9
400,1	26,7
400,5	31,7
401	16,3
401,4	13,7
401,9	30,3
402,4	22,7
402,8	3,7
403,3	9,7
403,7	50,9
404,2	14,7
404,6	45,7
405,1	20,7
405,5	13,1
406	22,7
406,5	30,3
406,9	58,5
407,4	9,7
407,8	42,5
408,3	24,5
408,7	16,3
409,2	48,1
409,6	33,1
410,1	17,1
410,6	67,3
411	50,9
411,5	46,1
411,9	39,1
412,4	69,7
412,8	87,1
413,3	81,7
413,7	81,9
414,2	66,3
414,7	49,7
415,1	71,3
415,6	42,9
416	96,3
416,5	88,9
416,9	104,1
417,4	84,7
417,8	116,5
418,3	102,3
418,8	105,5
419,2	115,1
419,7	130,3
420,1	128,5
420,6	144,3
421	158,9
421,5	175,3
421,9	150,9
422,4	146,3
422,8	168,3
423,3	167,3
423,8	199,3
424,2	190,7
424,7	215,3
425,1	235,3
425,6	226,1
426	271,1
426,5	277,5
426,9	280,7
427,4	298,3
427,9	297,1
428,3	312,1
428,8	307,3
429,2	342,1
429,7	323,3
430,1	379,3
430,6	404,1
431	398,9
431,5	404,9
431,9	449,7
432,4	444,5
432,8	487,1
433,3	537,7
433,8	545,1
434,2	537,5
434,7	595,3
435,1	600,1
435,6	671,9
436	686,1
436,5	672,3
436,9	718,1
437,4	782,3
437,8	772,5
438,3	856,3
438,8	848,3
439,2	899,3
439,7	925,3
440,1	948,1
440,6	1006,1
441	1034,7
441,5	1093,5
441,9	1136,3
442,4	1187,5
442,8	1235,5
443,3	1267,3
443,7	1313,1
444,2	1339,9
444,7	1385,1
445,1	1467,9
445,6	1525,7
446	1568,7
446,5	1655,1
446,9	1675,7
447,4	1757,3
447,8	1856,9
448,3	1857,3
448,7	1919,3
449,2	2018,9
449,6	2052,9
450,1	2085,3
450,6	2153,1
451	2240,1
451,5	2334,5
451,9	2357,5
452,4	2426,5
452,8	2536,7
453,3	2603,3
453,7	2653,9
454,2	2734,5
454,6	2800,9
455,1	2860,1
455,5	2952,1
456	3029,3
456,4	3057,3
456,9	3118,3
457,3	3212,3
457,8	3284,9
458,3	3358,5
458,7	3426,5
459,2	3532,9
459,6	3634,9
460,1	3651,1
460,5	3708,7
461	3798,5
461,4	3862,5
461,9	3967,9
462,3	3993,9
462,8	4091,7
463,2	4120,9
463,7	4246,7
464,1	4297,3
464,6	4395,3
465	4454,9
465,5	4522,5
466	4541,3
466,4	4690,7
466,9	4702,1
467,3	4760,7
467,8	4838,1
468,2	4874,3
468,7	4965,7
469,1	5029,9
469,6	5139,9
470	5180,1
470,5	5179,3
470,9	5257,3
471,4	5293,1
471,8	5384,7
472,3	5418,1
472,7	5458,3
473,2	5503,5
473,6	5565,1
474,1	5598,9
474,5	5678,7
475	5674,5
475,4	5726,7
475,9	5763,5
476,4	5813,5
476,8	5817,7
477,3	5903,3
477,7	5913,9
478,2	5985,3
478,6	6013,5
479,1	5987,1
479,5	6027,9
480	6078,7
480,4	6067,3
480,9	6148,5
481,3	6113,1
481,8	6160,3
482,2	6175,3
482,7	6129,9
483,1	6179,5
483,6	6200,5
484	6234,3
484,5	6185,1
484,9	6204,1
485,4	6255,9
485,8	6244,7
486,3	6192,5
486,7	6196,3
487,2	6247,7
487,6	6211,3
488,1	6219,1
488,5	6201,7
489	6201,7
489,4	6236,5
489,9	6210,1
490,4	6188,9
490,8	6175,5
491,3	6159,5
491,7	6073,3
492,2	6133,7
492,6	6126,5
493,1	6066,5
493,5	6048,1
494	6060,7
494,4	6003,9
494,9	5989,5
495,3	5953,7
495,8	5936,3
496,2	5909,1
496,7	5850,7
497,1	5846,5
497,6	5830,7
498	5756,1
498,5	5757,9
498,9	5722,7
499,4	5683,7
499,8	5625,9
500,3	5622,7
500,7	5612,1
501,2	5539,1
501,6	5513,1
502,1	5524,5
502,5	5465,1
503	5385,7
503,4	5402,9
503,9	5342,5
504,3	5318,5
504,8	5277,7
505,2	5245,5
505,7	5248,1
506,1	5196,9
506,6	5143,7
507	5075,1
507,5	5054,9
507,9	4971,3
508,4	4904,3
508,8	4918,3
509,3	4861,3
509,7	4819,1
510,2	4843,7
510,6	4762,1
511,1	4731,5
511,5	4646,5
512	4616,5
512,4	4606,9
512,9	4575,1
513,3	4528,1
513,8	4488,5
514,2	4347,7
514,7	4404,3
515,1	4324,1
515,6	4296,7
516	4228,1
516,5	4192,3
516,9	4122,9
517,4	4131,5
517,8	4022,9
518,3	3995,9
518,7	4017,3
519,2	3948,3
519,6	3867,9
520,1	3863,7
520,5	3773,9
521	3769,9
521,4	3703,1
521,9	3687,9
522,3	3632,9
522,8	3556,3
523,2	3542,5
523,7	3495,5
524,1	3456,3
524,6	3390,3
525	3393,3
525,5	3286,9
525,9	3306,3
526,4	3263,7
526,8	3204,9
527,3	3161,7
527,7	3205,1
528,2	3135,5
528,6	3111,1
529,1	2960,3
529,5	2990,5
530	2971,9
530,4	2922,3
530,9	2898,7
531,3	2845,9
531,8	2827,7
532,2	2782,3
532,6	2742,7
533,1	2724,3
533,5	2701,5
534	2656,9
534,4	2611,3
534,9	2615,7
535,3	2543,7
535,8	2539,3
536,2	2494,1
536,7	2452,1
537,1	2456,3
537,6	2371,7
538	2345,9
538,5	2364,1
538,9	2295,9
539,4	2270,5
539,8	2249,5
540,3	2227,1
540,7	2189,1
541,2	2163,7
541,6	2133,9
542,1	2118,1
542,5	2067,3
543	2053,9
543,4	2046,9
543,9	2008,7
544,3	1962,3
544,8	1976,3
545,2	1945,3
545,7	1913,9
546,1	1900,1
546,5	1834,7
547	1846,1
547,4	1807,5
547,9	1782,3
548,3	1758,1
548,8	1742,5
549,2	1731,5
549,7	1712,1
550,1	1689,9
550,6	1676,3
551	1627,3
551,5	1598,7
551,9	1586,3
552,4	1546,5
552,8	1542,1
553,3	1536,9
553,7	1518,7
554,2	1527,7
554,6	1475,5
555,1	1484,5
555,5	1445,9
555,9	1414,1
556,4	1386,7
556,8	1441,9
557,3	1404,7
557,7	1371,5
558,2	1313,5
558,6	1336,5
559,1	1271,7
559,5	1311,3
560	1304,1
560,4	1250,3
560,9	1245,1
561,3	1270,7
561,8	1205,7
562,2	1217,9
562,7	1223,9
563,1	1187,9
563,6	1160,1
564	1152,1
564,4	1139,1
564,9	1128,9
565,3	1100,9
565,8	1077,7
566,2	1074,7
566,7	1081,7
567,1	1074,5
567,6	1059,5
568	1030,3
568,5	1044,9
568,9	1019,9
569,4	988,1
569,8	985,5
570,3	940,7
570,7	972,7
571,1	951,5
571,6	930,1
572	899,3
572,5	930,9
572,9	933,5
573,4	897,7
573,8	891,7
574,3	876,9
574,7	855,5
575,2	850,9
575,6	830,9
576,1	849,9
576,5	815,7
576,9	806,1
577,4	802,1
577,8	787,3
578,3	805,1
578,7	766,7
579,2	799,7
579,6	765,3
580,1	732,5
580,5	748,7
581	713,7
581,4	731,3
581,9	722,7
582,3	714,3
582,7	709,3
583,2	659,5
583,6	690,5
584,1	684,5
584,5	639,7
585	632,7
585,4	656,1
585,9	690,3
586,3	672,7
586,8	599,7
587,2	588,7
587,6	637,5
588,1	616,9
588,5	622,9
589	592,7
589,4	593,3
589,9	581,5
590,3	566,9
590,8	558,7
591,2	565,1
591,7	597,5
592,1	563,1
592,5	558,1
593	537,3
593,4	569,7
593,9	536,9
594,3	537,3
594,8	527,7
595,2	551,5
595,7	521,1
596,1	540,5
596,6	501,7
597	479,7
597,4	478,1
597,9	490,5
598,3	463,1
598,8	484,7
599,2	490,7
599,7	460,3
600,1	467,9
600,6	444,1
601	450,3
601,4	459,7
601,9	447,5
602,3	455,3
602,8	450,1
603,2	460,3
603,7	421,1
604,1	427,5
604,6	433,9
605	417,9
605,4	405,3
605,9	429,9
606,3	414,9
606,8	425,9
607,2	434,1
607,7	413,9
608,1	425,3
608,6	413,9
609	390,3
609,4	398,7
609,9	370,5
610,3	376,1
610,8	395,3
611,2	383,9
611,7	364,3
612,1	395,9
612,6	356,3
613	391,5
613,4	381,7
613,9	341,5
614,3	364,3
614,8	368,7
615,2	329,1
615,7	345,5
616,1	321,3
616,6	334,7
617	344,3
617,4	335,5
617,9	331,1
618,3	351,5
618,8	317,1
619,2	307,3
619,7	295,3
620,1	298,1
620,5	326,7
621	291,1
621,4	313,5
621,9	313,5
622,3	292,9
622,8	291,5
623,2	324,7
623,6	287,9
624,1	279,9
624,5	281,1
625	273,3
625,4	280,3
625,9	306,1
626,3	322,3
626,8	282,3
627,2	253,1
627,6	288,7
628,1	280,3
628,5	253,9
629	284,9
629,4	273,3
629,9	276,5
630,3	247,7
630,7	254,9
631,2	296,1
631,6	240,3
632,1	235,1
632,5	285,9
633	253,1
633,4	277,1
633,8	233,9
634,3	243,7
634,7	233,3
635,2	231,1
635,6	262,9
636,1	245,1
636,5	217,7
636,9	257,1
637,4	230,3
637,8	227,9
638,3	194,7
638,7	221,9
639,2	244,1
639,6	220,9
640	241,7
640,5	204,1
640,9	183,1
641,4	223,9
641,8	231,1
642,2	162,5
642,7	216,9
643,1	241,1
643,6	208,3
644	205,3
644,5	211,7
644,9	232,9
645,3	242,9
645,8	206,9
646,2	198,7
646,7	198,7
647,1	200,3
647,6	186,1
648	207,7
648,4	231,3
648,9	212,7
649,3	201,1
649,8	186,5
650,2	191,3
650,6	222,1
651,1	220,1
651,5	210,1
652	192,9
652,4	181,3
652,9	181,9
653,3	207,9
653,7	199,7
654,2	208,1
654,6	207,7
655,1	191,9
655,5	185,5
655,9	200,7
656,4	179,1
656,8	183,5
657,3	186,7
657,7	178,3
658,2	174,7
658,6	184,1
659	177,1
659,5	169,5
659,9	173,3
660,4	185,5
660,8	150,1
661,2	187,7
661,7	186,3
662,1	200,3
662,6	183,3
663	190,3
663,4	191,5
663,9	216,7
664,3	196,7
664,8	182,1
665,2	205,5
665,6	155,9
666,1	132,1
666,5	185,1
667	156,3
667,4	163,9
667,9	163,3
668,3	164,7
668,7	179,1
669,2	175,1
669,6	170,1
670,1	153,9
670,5	143,3
670,9	150,7
671,4	166,1
671,8	150,1
672,3	165,3
672,7	164,9
673,1	137,5
673,6	145,1
674	167,7
674,5	136,7
674,9	165,3
675,3	134,3
675,8	168,7
676,2	146,7
676,7	172,5
677,1	136,9
677,5	135,5
678	130,5
678,4	150,5
678,9	142,1
679,3	132,1
679,7	97,3
680,2	134,9
680,6	168,9
681,1	152,7
681,5	142,5
681,9	159,7
682,4	155,5
682,8	149,1
683,3	121,7
683,7	128,1
684,1	142,3
684,6	113,7
685	151,7
685,5	126,9
685,9	119,1
686,3	127,7
686,8	133,1
687,2	135,7
687,7	122,3
688,1	129,5
688,5	147,7
689	122,9
689,4	114,5
689,9	106,5
690,3	149,1
690,7	134,5
691,2	104,5
691,6	98,7
692	126,3
692,5	96,7
692,9	126,9
693,4	116,1
693,8	113,3
694,2	125,3
694,7	115,5
695,1	141,1
695,6	110,7
696	122,5
696,4	109,3
696,9	120,3
697,3	105,1
697,8	102,3
698,2	155,1
698,6	88,5
699,1	105,1
699,5	130,9
699,9	128,3
700,4	103,1
700,8	97,7
701,3	118,9
701,7	87,3
702,1	106,5
702,6	102,9
703	99,7
703,5	83,3
703,9	104,3
704,3	115,5
704,8	106,1
705,2	91,1
705,6	97,5
706,1	96,5
706,5	131,5
707	117,7
707,4	95,7
707,8	97,9
708,3	100,1
708,7	102,9
709,2	77,3
709,6	108,3
710	127,5
710,5	69,5
710,9	114,1
711,3	109,3
711,8	106,3
712,2	126,3
712,7	81,5
713,1	97,5
713,5	76,5
714	94,3
714,4	118,5
714,8	102,3
715,3	82,7
715,7	94,1
716,2	92,7
716,6	86,1
717	87,3
717,5	62,3
717,9	88,3
718,3	87,5
718,8	89,1
719,2	108,5
719,7	63,5
720,1	70,7
720,5	97,3
721	90,5
721,4	93,5
721,8	81,7
722,3	84,1
722,7	86,7
723,2	71,9
723,6	45,3
724	77,9
724,5	100,7
724,9	110,5
725,3	85,1
725,8	94,7
726,2	58,3
726,7	91,3
727,1	87,3
727,5	87,7
728	79,5
728,4	76,1
728,8	69,1
729,3	64,7
729,7	23,7
730,1	62,3
730,6	58,9
731	73,9
731,5	68,9
731,9	79,3
732,3	71,1
732,8	58,5
733,2	59,9
733,6	75,5
734,1	87,7
734,5	107,9
734,9	66,7
735,4	51,3
735,8	89,3
736,3	43,3
736,7	84,5
737,1	97,5
737,6	61,3
738	66,5
738,4	51,1
738,9	104,3
739,3	82,9
739,7	60,9
740,2	69,1
740,6	58,7
741,1	77,1
741,5	74,1
741,9	69,3
742,4	75,3
742,8	49,1
743,2	89,5
743,7	76,1
744,1	74,7
744,5	35,5
745	59,3
745,4	76,7
745,8	79,3
746,3	81,5
746,7	68,7
747,2	43,3
747,6	53,5
748	60,9
748,5	39,1
748,9	65,3
749,3	81,9
749,8	88,7
750,2	36,3
750,6	75,3
751,1	72,7
751,5	46,7
751,9	43,9
752,4	32,9
752,8	43,3
753,3	60,1
753,7	64,5
754,1	83,3
754,6	79,7
755	44,3
755,4	60,3
755,9	76,7
756,3	48,1
756,7	34,7
757,2	51,9
757,6	52,1
758	43,5
758,5	55,9
758,9	55,9
759,3	76,5
759,8	49,3
760,2	24,9
760,6	53,1
761,1	48,7
761,5	76,3
761,9	46,7
762,4	51,3
762,8	56,1
763,3	37,5
763,7	52,9
764,1	70,7
764,6	56,9
765	30,1
765,4	46,3
765,9	49,9
766,3	5,7
766,7	69,3
767,2	35,5
767,6	42,1
768	84,1
768,5	66,3
768,9	44,7
769,3	49,9
769,8	69,1
770,2	42,9
770,6	53,5
771,1	63,5
771,5	26,7
771,9	53,7
772,4	91,5
772,8	64,9
773,2	49,3
773,7	52,3
774,1	25,5
774,5	45,5
775	26,7
775,4	70,9
775,8	57,7
776,3	68,9
776,7	36,7
777,1	43,3
777,6	38,1
778	31,1
778,4	50,7
778,9	47,1
779,3	50,5
779,7	52,9
780,2	43,3
780,6	17,5
781	65,5
781,5	33,1
781,9	55,5
782,3	61,3
782,8	87,5
783,2	39,1
783,6	32,9
784,1	72,5
784,5	20,7
784,9	50,7
785,4	53,1
785,8	27,7
786,2	72,7
786,7	30,3
787,1	60,3
787,5	43,9
788	55,9
788,4	54,5
788,8	38,3
789,3	50,9
789,7	61,1
790,1	22,3
790,6	23,5
791	32,9
791,4	38,9
791,9	69,7
792,3	34,1
792,7	44,7
793,2	45,3
793,6	30,5
794	56,9
794,5	15,7
794,9	64,7
795,3	15,9
795,8	39,1
796,2	37,3
796,6	28,7
797,1	30,3
797,5	72,5
797,9	43,5
798,4	28,7
798,8	50,7
799,2	51,3
799,7	63,7
800,1	25,3
800,5	32,5
801	63,1
801,4	38,3
801,8	34,3
802,2	25,7
802,7	9,3
803,1	27,7
803,5	11,9
804	57,3
804,4	22,3
804,8	24,9
805,3	49,9
805,7	37,9
806,1	35,5
806,6	48,3
807	14,1
807,4	35,9
807,9	14,1
808,3	36,1
808,7	50,7
809,2	39,5
809,6	25,7
810	32,1
810,4	17,5
810,9	31,5
811,3	4,7
811,7	50,5
812,2	23,9
812,6	37,9
813	39,1
813,5	28,9
813,9	27,1
814,3	17,9
814,8	15,7
815,2	66,1
815,6	7,9
816,1	23,3
816,5	37,1
816,9	8,9
817,3	19,3
817,8	45,3
818,2	31,3
818,6	31,5
819,1	38,1
819,5	29,7
819,9	70,7
820,4	23,3
820,8	14,7
821,2	40,7
821,7	27,1
822,1	14,9
822,5	24,1
822,9	22,7
823,4	26,1
823,8	51,5
824,2	19,1
824,7	5,3
825,1	34,9
825,5	4,3
826	23,7
826,4	17,5
826,8	27,3
827,3	45,3
827,7	0,9
828,1	3,5
828,5	30,3
829	48,1
829,4	8,3
829,8	9,5
830,3	13,3
830,7	23,1
831,1	17,5
831,6	10,1
832	34,7
832,4	20,1
832,8	24,7
833,3	19,9
833,7	39,9
834,1	40,3
834,6	1,7
835	34,7
835,4	15,9
835,8	28,5
836,3	19,3
836,7	6,3
837,1	19,9
837,6	5,5
838	37,3
838,4	25,9
838,9	2,1
839,3	27,1
839,7	26,5
840,1	-13,1
840,6	22,1
841	38,9
841,4	25,3
841,9	6,7
842,3	38,1
842,7	16,7
843,1	18,5
843,6	40,5
844	25,1
844,4	28,3
844,9	39,1
845,3	9,1
845,7	37,5
846,2	39,9
846,6	36,7
847	25,3
847,4	30,1
847,9	37,1
848,3	14,3
848,7	51,9
849,2	11,5
849,6	21,1
850	25,5
850,4	18,9
850,9	2,9
851,3	37,3
851,7	17,7
852,2	10,5
852,6	-1,1
853	25,3
853,4	31,3
853,9	9,9
854,3	49,3
854,7	10,7
855,2	28,7
855,6	9,3
856	-30,9
856,4	-8,7
856,9	45,3
857,3	-33,1
857,7	32,9
858,2	42,7
858,6	21,1
859	55,1
859,4	28,3
859,9	41,9
860,3	-16,7
860,7	39,1
861,1	36,9
861,6	20,5
862	27,1
862,4	13,7
862,9	4,5
863,3	18,1
863,7	3,5
864,1	19,5
864,6	19,9
865	-1,5
865,4	42,9
865,9	26,9
866,3	31,9
866,7	10,9
867,1	1,1
867,6	14,3
868	29,1
868,4	19,1
868,8	-5,3
869,3	36,7
869,7	8,1
870,1	11,9
870,6	57,7
871	23,5
871,4	44,3
871,8	11,9
872,3	331,7
872,7	4,3
873,1	7,9
873,5	26,1
874	28,3
874,4	6,1
874,8	31,1
875,3	35,7
875,7	8,7
876,1	20,3
876,5	25,5
877	-7,5
877,4	9,9
877,8	19,5
878,2	29,1
878,7	2,7
879,1	-3,7
879,5	-3,5
879,9	23,7
880,4	6,7
880,8	-0,1
881,2	0,7
881,7	6,3
882,1	7,7
882,5	-19,7
882,9	37,5
883,4	23,1
883,8	30,9
884,2	-1,7
884,6	15,5
885,1	23,5
885,5	-4,5
885,9	46,1
886,3	4,5
886,8	-3,1
887,2	29,7
887,6	28,3
888	20,9
888,5	1,7
888,9	-1,9
889,3	11,5
889,8	28,7
890,2	31,9
890,6	-3,3
891	9,7
891,5	17,9
891,9	-3,3
892,3	42,5
892,7	31,5
893,2	28,1
893,6	18,5
894	44,9
894,4	41,3
894,9	12,3
895,3	22,1
895,7	9,9
896,1	-12,9
896,6	8,3
897	-12,9
897,4	21,5
897,8	-21,9
898,3	-12,5
898,7	-9,3
899,1	13,7
899,5	-4,5
900	7,7
900,4	35,3
900,8	0,7
901,2	2,3
901,7	-0,9
902,1	-3,3
902,5	-11,5
902,9	21,7
903,4	13,5
903,8	-23,3
904,2	-5,9
904,6	46,9
905,1	10,3
905,5	22,1
905,9	21,3
906,3	6,5
906,8	20,1
907,2	18,5
907,6	12,1
908	26,3
908,5	-16,3
908,9	9,5
909,3	27,1
909,7	1,5
910,2	-6,1
910,6	8,1
911	36,3
911,4	16,3
911,9	9,3
912,3	12,1
912,7	19,1
913,1	2,9
913,6	2,1
914	-8,3
914,4	-16,9
914,8	15,9
915,3	0,3
915,7	-5,5
916,1	9,7
916,5	1,7
916,9	18,7
917,4	5,5
917,8	7,7
918,2	25,1
918,6	2,3
919,1	-7,9
919,5	-20,5
919,9	32,5
920,3	-7,9
920,8	0,1
921,2	16,1
921,6	-28,5
922	7,3
922,5	21,1
922,9	15,3
923,3	-24,1
923,7	-8,7
924,2	6,7
924,6	24,5
925	-14,9
925,4	2,5
925,8	18,1
926,3	26,1
926,7	39,7
927,1	36,9
927,5	33,3
928	8,3
928,4	27,3
928,8	6,3
929,2	19,3
929,7	6,1
930,1	4,1
930,5	-1,5
930,9	18,3
931,3	8,1
931,8	4,7
932,2	4,7
932,6	13,7
933	12,9
933,5	30,3
933,9	7,1
934,3	18,9
934,7	19,5
935,2	6,3
935,6	1,9
936	27,5
936,4	8,1
936,8	-23,9
937,3	11,1
937,7	24,7
938,1	1,5
938,5	7,3
939	23,5
939,4	-1,9
939,8	4,5
940,2	2,3
940,6	-2,9
941,1	-3,9
941,5	21,3
941,9	-10,7
942,3	1,5
942,8	15,5
943,2	4,5
943,6	7,5
944	24,1
944,4	8,1
944,9	5,5
945,3	3,3
945,7	2,5
946,1	8,5
946,6	12,1
947	11,3
947,4	-3,3
947,8	20,7
948,2	-12,1
948,7	14,9
949,1	12,5
949,5	6,3
949,9	-10,5
950,3	1,3
950,8	1,9
951,2	-11,7
951,6	-0,9
952	35,9
952,5	19,7
952,9	14,7
953,3	12,9
953,7	48,7
954,1	-4,3
954,6	-12,3
955	5,9
955,4	15,1
955,8	-14,5
956,2	3,1
956,7	11,7
957,1	4,3
957,5	1,9
957,9	8,3
958,3	-1,5
958,8	-3,1
959,2	-14,7
959,6	3,9
960	-14,1
960,5	14,3
960,9	6,3
961,3	8,1
961,7	5,1
962,1	7,5
962,6	2,1
963	31,3
963,4	16,3
963,8	7,9
964,2	-6,1
964,7	-14,3
965,1	-7,1
965,5	-2,7
965,9	-10,5
966,3	13,1
966,8	8,1
967,2	14,5
967,6	-6,1
968	-15,7
968,4	-8,5
968,9	12,9
969,3	25,1
969,7	-9,1
970,1	4,1
970,5	-21,1
971	-4,7
971,4	23,5
971,8	8,1
972,2	-9,5
972,6	6,5
973,1	3,3
973,5	26,7
973,9	11,3
974,3	6,9
974,7	-7,3
975,2	11,7
975,6	18,9
976	-9,3
976,4	1,7
976,8	9,7
977,3	12,5
977,7	7,9
978,1	-14,9
978,5	23,1
978,9	7,9
979,4	16,3
979,8	6,5
980,2	1,9
980,6	18,3
981	-9,9
981,5	3,1
981,9	-9,9
982,3	-6,3
982,7	20,5
983,1	6,9
983,6	6,7
984	18,1
984,4	3,5
984,8	-6,3
985,2	5,1
985,6	11,1
986,1	-13,1
986,5	-3,5
986,9	-0,9
987,3	-14,3
987,7	4,5
988,2	-2,5
988,6	11,1
989	-0,9
989,4	-7,3
989,8	-5,7
990,3	-4,7
990,7	-15,3
991,1	-17,1
991,5	4,5
991,9	19,1
992,3	-19,3
992,8	26,7
993,2	-1,5
993,6	11,7
994	-4,5
994,4	5,1
994,9	0,3
995,3	12,1
995,7	14,1
996,1	12,9
996,5	8,7
996,9	2,3
997,4	12,7
997,8	11,5
998,2	3,7
998,6	-0,1
999	-4,9
999,5	4,9
999,9	-10,9
1000,3	-4,7
1000,7	0,1
1001,1	1,5
1001,5	-4,5
1002	-1,1
1002,4	17,3
1002,8	32,3
1003,2	-7,9
1003,6	2,7
1004	-22,3
1004,5	2,7
1004,9	13,1
1005,3	14,1
1005,7	9,9
1006,1	-3,9
1006,6	-14,5
1007	25,1
1007,4	14,3
1007,8	8,3
1008,2	-2,1
1008,6	-0,9
1009,1	14,3
1009,5	19,5
1009,9	-7,5
1010,3	-35,3
1010,7	5,3
1011,1	4,9
1011,6	49,3
1012	-4,9
1012,4	-4,5
1012,8	8,7
1013,2	-9,1
1013,6	-10,1
1014,1	1,7
1014,5	13,5
1014,9	17,5
1015,3	-10,5
1015,7	-3,9
1016,1	2,7
1016,6	-8,1
1017	-15,9
1017,4	-2,1
1017,8	-11,1
1018,2	0,9
1018,6	0,1
1019,1	-12,5
1019,5	-2,7
1019,9	0,1
1020,3	21,3
1020,7	10,7
1021,1	-6,1
1021,6	-6,1
1022	18,5
1022,4	4,7
1022,8	-5,3
1023,2	-16,9
1023,6	-25,1
1024,1	25,1
1024,5	-32,5
1024,9	4,1
1025,3	-30,3
1025,7	-21,7
1026,1	-20,3
1026,6	-10,7
1027	-10,9
1027,4	-29,9
1027,8	57,9
1028,2	-16,5
1028,6	-12,9
1029	-2,1
1029,5	4,3
1029,9	-2,3
1030,3	4,7
1030,7	25,7
1031,1	5,1
1031,5	-20,3
1032	-5,1
1032,4	-7,3
1032,8	-6,7
1033,2	-10,9
1033,6	0,3
1034	12,7
1034,4	21,3
1034,9	24,3
1035,3	1,9
1035,7	30,9
1036,1	-20,5
1036,5	-4,3
1036,9	-15,9
1037,4	19,7
1037,8	50,9
1038,2	22,5
1038,6	24,9
1039	-1,1
1039,4	11,9
1039,8	-9,3
1040,3	7,3
1040,7	6,7
1041,1	18,9
1041,5	23,1
1041,9	-20,9
1042,3	-5,5
1042,7	13,9
1043,2	25,7
1043,6	8,7
1044	22,9
1044,4	-3,3
1044,8	6,7
1045,2	25,1
1045,6	-20,7
1046,1	1,1
1046,5	-9,7
1046,9	45,3
1047,3	17,7
1047,7	-9,5
1048,1	7,5
1048,5	-35,7
1049	3,9
1049,4	2,1
1049,8	-20,7
1050,2	20,3
1050,6	-4,5
1051	37,3
1051,4	-3,5
1051,9	-10,1
1052,3	-4,5
1052,7	18,7
1053,1	21,3
1053,5	-8,1
1053,9	14,5
1054,3	41,3
1054,8	-14,9
1055,2	-27,5
1055,6	-19,7
1056	9,3
1056,4	26,3
1056,8	37,1
1057,2	-19,9
1057,6	6,1
1058,1	-9,1
1058,5	-8,9
1058,9	6,1
1059,3	-0,1
1059,7	10,5
1060,1	11,7
1060,5	-7,5
1061	-38,5
1061,4	-17,7
1061,8	28,7
1062,2	-15,3
1062,6	29,5
1063	-14,9
1063,4	18,1
1063,8	-28,5
1064,3	-7,1
1064,7	11,5
1065,1	-16,7
1065,5	-3,5
1065,9	-9,3
1066,3	-9,9
1066,7	5,9
1067,1	-8,7
1067,6	39,3
1068	1,1
1068,4	-23,3
1068,8	-6,5
1069,2	-7,5
1069,6	-8,7
1070	4,5
1070,4	4,9
1070,9	-45,5
1071,3	-2,5
1071,7	13,3
1072,1	-12,1
1072,5	-1,5
1072,9	-19,7
1073,3	-32,7
1073,7	23,3
1074,2	-10,7
1074,6	2,7
1075	9,5
1075,4	16,1
1075,8	0,5
1076,2	-0,1
1076,6	16,3
1077	-1,3
1077,5	24,9
1077,9	-20,9
1078,3	-40,5
1078,7	-9,7
1079,1	-9,1
1079,5	9,7
1079,9	4,1
1080,3	-13,3
1080,7	21,7
1081,2	-0,9
1081,6	3,1
1082	-0,9
1082,4	-0,9
1082,8	20,7
1083,2	-18,5
1083,6	18,9
1084	1,7
1084,5	10,9
1084,9	6,3
1085,3	-19,1
1085,7	-13,3
1086,1	-4,7
1086,5	15,9
1086,9	21,1
1087,3	3,5
1087,7	12,1
1088,2	11,7
1088,6	14,9
1089	-2,3
1089,4	4,7
1089,8	-10,1
1090,2	28,5
1090,6	8,9
1091	3,3
1091,4	-1,7
1091,9	3,5
1092,3	-6,9
1092,7	5,9
1093,1	-17,3
1093,5	-8,5
1093,9	10,7
1094,3	4,5
1094,7	24,7
1095,1	6,1
1095,5	20,1
1096	3,9
1096,4	31,5
1096,8	24,3
1097,2	-15,3
1097,6	26,5
1098	-4,9
1098,4	26,1
1098,8	4,9
1099,2	-17,9
1099,6	-5,9
1100,1	-0,7
1100,5	-29,3
1100,9	30,1
1101,3	15,5
1101,7	6,1
1102,1	-20,1
1102,5	-5,5
1102,9	3,5
1103,3	-6,3
1103,7	-23,9
1104,2	13,3
1104,6	0,7
1105	1,1
1105,4	2,5
1105,8	-15,9
1106,2	18,7
1106,6	1,5
1107	-0,3
1107,4	-0,3
1107,8	-1,1
1108,3	0,1
