Data from Subt2_00025.txt Node
Date: Wed Aug 02 19:25:21 MSK 2023
User: vat
Spectrometer: MAYP114033
Trigger mode: 0
Integration Time (sec): 7,000000E-1
Scans to average: 5
Electric dark correction enabled: true
Nonlinearity correction enabled: false
Boxcar width: 0
XAxis mode: Wavelengths
Number of Pixels in Spectrum: 2068
>>>>>Begin Spectral Data<<<<<
199,4	0,4
199,9	-1,4
200,4	0,2
200,8	-1,2
201,3	-18,6
201,8	-16,4
202,2	-5,2
202,7	1,2
203,2	-11,8
203,6	18,2
204,1	23
204,6	0,4
205	-0,4
205,5	-1,4
206	7,8
206,4	4,2
206,9	-29,2
207,4	-3,8
207,8	34,8
208,3	-33
208,8	12,4
209,2	0,4
209,7	29,6
210,2	2
210,6	23,6
211,1	4
211,5	-2,4
212	-26,2
212,5	13,6
212,9	-16,4
213,4	-5,6
213,9	-3,8
214,3	-5,4
214,8	-4,6
215,3	10
215,7	20,6
216,2	28,8
216,7	-17,6
217,1	-5
217,6	3,6
218,1	-7,8
218,5	5,2
219	13,6
219,5	-13,4
219,9	23,6
220,4	-11
220,9	-5,2
221,3	-11,2
221,8	-6,2
222,3	-0,8
222,7	16,2
223,2	35
223,6	8,8
224,1	-5,4
224,6	0,8
225	-38,4
225,5	9
226	-16,8
226,4	6,4
226,9	-18,8
227,4	22
227,8	-11,4
228,3	11,4
228,8	4,2
229,2	31,6
229,7	21,2
230,2	-50
230,6	-9,4
231,1	0,8
231,5	-0,6
232	28
232,5	5,8
232,9	4,8
233,4	17
233,9	10
234,3	26,8
234,8	-21
235,3	25
235,7	-3,8
236,2	6,8
236,7	15,2
237,1	-24,4
237,6	-1,8
238,1	29
238,5	9,4
239	-0,4
239,4	19,6
239,9	-22
240,4	32,6
240,8	-18,2
241,3	-11,4
241,8	2,4
242,2	-1,2
242,7	-6,4
243,2	-10,2
243,6	-10,4
244,1	-18,8
244,6	-26
245	8,4
245,5	-39,2
245,9	-13,4
246,4	12,2
246,9	3,6
247,3	-23,6
247,8	24,4
248,3	8,2
248,7	-10,4
249,2	-6
249,7	-15,4
250,1	-16,2
250,6	0,6
251	-20,6
251,5	16,2
252	-13,8
252,4	8,4
252,9	-1,8
253,4	1
253,8	9
254,3	-1,8
254,8	-17,6
255,2	-3,4
255,7	8,4
256,1	4,8
256,6	-29,8
257,1	3,4
257,5	2,6
258	-10,4
258,5	-5,2
258,9	5
259,4	-13
259,9	7,2
260,3	-34,4
260,8	-4,2
261,2	2,6
261,7	-2
262,2	19,8
262,6	-8,2
263,1	-43
263,6	-16,8
264	6,4
264,5	20
264,9	10
265,4	13,8
265,9	22,8
266,3	-4
266,8	3,8
267,3	-20,8
267,7	-3,2
268,2	9,8
268,7	17,8
269,1	-12,4
269,6	25,2
270	5,2
270,5	-8,8
271	-20,4
271,4	11,4
271,9	-11,6
272,4	-13
272,8	-0,4
273,3	15
273,7	-16,6
274,2	18
274,7	-3
275,1	10
275,6	-10,4
276,1	-9,4
276,5	1,8
277	-24,4
277,4	2,8
277,9	6,8
278,4	6,4
278,8	-12,6
279,3	11
279,8	8,6
280,2	-15,4
280,7	10,2
281,1	23
281,6	-32
282,1	6,8
282,5	6,6
283	-15
283,4	-9,8
283,9	-5
284,4	-24,4
284,8	-8
285,3	2,4
285,8	2,2
286,2	-6,8
286,7	20,4
287,1	1,8
287,6	19,6
288,1	-10,6
288,5	2
289	1
289,5	0,2
289,9	-21,2
290,4	11,6
290,8	-20,6
291,3	21,4
291,8	21
292,2	4,6
292,7	17
293,1	-17,2
293,6	-3,8
294,1	5,8
294,5	-9,2
295	-15,8
295,5	-4,2
295,9	-2,6
296,4	-6,8
296,8	-8
297,3	-1,4
297,8	11,4
298,2	-40,6
298,7	-8
299,1	31,2
299,6	-10,6
300,1	3,6
300,5	-17
301	13,2
301,5	-25,4
301,9	-22,6
302,4	-5,6
302,8	-9,2
303,3	-38,6
303,8	-2,4
304,2	12
304,7	26
305,1	-5,6
305,6	5,6
306,1	-7
306,5	-7,6
307	3,6
307,4	9,6
307,9	16
308,4	-35,6
308,8	-0,6
309,3	-12
309,8	19,2
310,2	19
310,7	-36
311,1	-19,4
311,6	1,6
312,1	-9,8
312,5	-11,2
313	31,2
313,4	2,4
313,9	-3
314,4	-20,8
314,8	3,6
315,3	11,6
315,7	19,2
316,2	26
316,7	5,8
317,1	-1,6
317,6	-14,6
318	-8,6
318,5	-10,2
319	-7,8
319,4	-1,8
319,9	12
320,3	-1,8
320,8	3,4
321,3	-19,8
321,7	7,8
322,2	-3,6
322,6	8,4
323,1	2
323,6	-11
324	-6,8
324,5	-20,2
324,9	-19,4
325,4	11,6
325,9	5
326,3	-7
326,8	-40,2
327,2	-19
327,7	17,2
328,2	-12
328,6	-2,6
329,1	-6,2
329,5	-14,2
330	-8
330,5	-1,6
330,9	-7,6
331,4	-11,8
331,8	-3
332,3	1,4
332,8	7,2
333,2	27,8
333,7	32,2
334,1	-7,4
334,6	4,4
335,1	-16,6
335,5	0,6
336	4,8
336,4	2
336,9	-37,4
337,4	18,8
337,8	5,2
338,3	12,8
338,7	-17,4
339,2	-17,2
339,7	29,8
340,1	-14,4
340,6	-18,6
341	7
341,5	15,4
342	10,8
342,4	42,6
342,9	-11,4
343,3	13
343,8	-7,2
344,2	-28
344,7	34,2
345,2	32,4
345,6	0,4
346,1	13,6
346,5	38,2
347	28,6
347,5	13,4
347,9	10,4
348,4	15,4
348,8	-28,8
349,3	-16
349,8	8,6
350,2	-14,2
350,7	2
351,1	-14,4
351,6	-3
352	5
352,5	-7
353	-9
353,4	3
353,9	11,8
354,3	31,4
354,8	23
355,3	52,2
355,7	17,6
356,2	6,2
356,6	49
357,1	60,8
357,5	62,8
358	60,6
358,5	90
358,9	109
359,4	96,6
359,8	118,8
360,3	114
360,8	148,6
361,2	178,6
361,7	202
362,1	217
362,6	234
363	274,2
363,5	274,2
364	315,2
364,4	387,6
364,9	380,8
365,3	454,4
365,8	454,8
366,3	518,2
366,7	523,2
367,2	533,4
367,6	570,8
368,1	609,4
368,5	632,4
369	611,8
369,5	595
369,9	602,8
370,4	581,2
370,8	577,4
371,3	600,6
371,7	545
372,2	540,8
372,7	483
373,1	458
373,6	442,8
374	462,4
374,5	403
374,9	358,8
375,4	326,6
375,9	303,2
376,3	298,2
376,8	267,6
377,2	223
377,7	235,4
378,2	202,4
378,6	176
379,1	163,6
379,5	163,6
380	121,4
380,4	135,6
380,9	139,2
381,4	110,2
381,8	78,4
382,3	110,8
382,7	100,6
383,2	83,8
383,6	86
384,1	84,6
384,6	80,6
385	37,2
385,5	42,8
385,9	65,8
386,4	65
386,8	55
387,3	63,8
387,7	57
388,2	10,8
388,7	23,6
389,1	45,4
389,6	18
390	15,6
390,5	13,2
390,9	-5,2
391,4	27
391,9	13
392,3	29,8
392,8	23
393,2	31
393,7	20,8
394,1	11
394,6	36,8
395,1	20,4
395,5	39,8
396	1,4
396,4	23,8
396,9	-0
397,3	3,8
397,8	-12,4
398,2	22,4
398,7	33,6
399,2	-10,8
399,6	-6,6
400,1	-14,8
400,5	-2,8
401	13
401,4	30
401,9	2,8
402,4	-0
402,8	5,6
403,3	17,4
403,7	24
404,2	33
404,6	11,8
405,1	16,6
405,5	-1,4
406	9,2
406,5	3,2
406,9	16,8
407,4	42,6
407,8	1,8
408,3	30,8
408,7	33,4
409,2	3,8
409,6	-10,2
410,1	44,4
410,6	20,6
411	32
411,5	37,4
411,9	38
412,4	36,4
412,8	55,4
413,3	12,2
413,7	50,2
414,2	42
414,7	72
415,1	61,6
415,6	102
416	53,6
416,5	82,8
416,9	95
417,4	75,2
417,8	90,4
418,3	72,4
418,8	107
419,2	57
419,7	101,8
420,1	104,8
420,6	106,4
421	109,4
421,5	137,8
421,9	143,8
422,4	163,6
422,8	132,4
423,3	137,6
423,8	141,6
424,2	179,6
424,7	143,8
425,1	171,8
425,6	162,8
426	186,8
426,5	206,8
426,9	223,4
427,4	217,4
427,9	241,2
428,3	260,2
428,8	228,2
429,2	272,6
429,7	305,6
430,1	280,4
430,6	306
431	325,6
431,5	298,6
431,9	368,4
432,4	356
432,8	422,4
433,3	386,2
433,8	401
434,2	475,4
434,7	467,4
435,1	490,8
435,6	478
436	538
436,5	511,6
436,9	603,2
437,4	599,8
437,8	598,2
438,3	631,4
438,8	706,6
439,2	731,6
439,7	734,4
440,1	800,6
440,6	833,6
441	847,8
441,5	860,2
441,9	920,4
442,4	929,2
442,8	979,4
443,3	1042,8
443,7	1095,2
444,2	1135,4
444,7	1182,6
445,1	1222,2
445,6	1278
446	1297,4
446,5	1358,4
446,9	1450,2
447,4	1475,6
447,8	1511,8
448,3	1563
448,7	1658,4
449,2	1695
449,6	1705
450,1	1810,2
450,6	1841,8
451	1930
451,5	1991,8
451,9	2017,6
452,4	2078,6
452,8	2157,6
453,3	2198,6
453,7	2315,2
454,2	2363,4
454,6	2410,6
455,1	2469,8
455,5	2585
456	2629,6
456,4	2709,8
456,9	2781,8
457,3	2778,2
457,8	2889,8
458,3	2971
458,7	3035,4
459,2	3142,6
459,6	3222,8
460,1	3229,4
460,5	3344,2
461	3395,2
461,4	3467
461,9	3486,6
462,3	3611,8
462,8	3662
463,2	3728,2
463,7	3806,8
464,1	3894,8
464,6	3960
465	3975
465,5	4085
466	4162,4
466,4	4160,6
466,9	4277,4
467,3	4358,4
467,8	4416,8
468,2	4486,8
468,7	4537,6
469,1	4604,2
469,6	4674,4
470	4702,2
470,5	4827,6
470,9	4827,8
471,4	4852,8
471,8	4940
472,3	5055,6
472,7	5077,4
473,2	5097,2
473,6	5160
474,1	5237,8
474,5	5303,8
475	5252,4
475,4	5403
475,9	5395,6
476,4	5456,6
476,8	5496,2
477,3	5557,6
477,7	5591,6
478,2	5624,6
478,6	5646
479,1	5667,2
479,5	5707,8
480	5710,2
480,4	5779
480,9	5808,2
481,3	5810,2
481,8	5833,4
482,2	5817
482,7	5872,8
483,1	5915,4
483,6	5938,2
484	5917,2
484,5	6002
484,9	5969
485,4	5989,6
485,8	6021,4
486,3	5998,8
486,7	5962,2
487,2	6007
487,6	6002,2
488,1	6014,4
488,5	5999,4
489	6000
489,4	5985,6
489,9	6046,8
490,4	6049
490,8	6006,2
491,3	5996,2
491,7	5994
492,2	6006,8
492,6	5964,2
493,1	5943,4
493,5	5949,8
494	5918,8
494,4	5878
494,9	5868,4
495,3	5846,4
495,8	5837,8
496,2	5842,2
496,7	5808,2
497,1	5786,4
497,6	5792,6
498	5726
498,5	5720,6
498,9	5663,8
499,4	5629,6
499,8	5651,6
500,3	5572,6
500,7	5596
501,2	5467,6
501,6	5522
502,1	5503,6
502,5	5397,2
503	5464,6
503,4	5358
503,9	5372,2
504,3	5310,2
504,8	5317
505,2	5237,6
505,7	5207,2
506,1	5173,8
506,6	5185,4
507	5081
507,5	5085
507,9	5039,4
508,4	4991,4
508,8	5024,4
509,3	4926,8
509,7	4868,4
510,2	4847,6
510,6	4829,4
511,1	4798,6
511,5	4733,8
512	4663,8
512,4	4664,2
512,9	4568,2
513,3	4608,4
513,8	4465,4
514,2	4490,4
514,7	4428,2
515,1	4382,4
515,6	4374,8
516	4344,2
516,5	4292,4
516,9	4232
517,4	4167,2
517,8	4165,4
518,3	4108,8
518,7	4092,2
519,2	4008,2
519,6	3936,8
520,1	3908
520,5	3929
521	3861,6
521,4	3812
521,9	3775,8
522,3	3729,2
522,8	3678
523,2	3642,2
523,7	3579,2
524,1	3562,8
524,6	3535,4
525	3511,6
525,5	3442,6
525,9	3419,2
526,4	3373
526,8	3277,6
527,3	3317,8
527,7	3233,6
528,2	3205,2
528,6	3158,6
529,1	3151
529,5	3110,8
530	3114
530,4	3056,2
530,9	2987,4
531,3	3007,8
531,8	2945,8
532,2	2886,2
532,6	2867,8
533,1	2840,4
533,5	2799
534	2729,2
534,4	2705,8
534,9	2665,4
535,3	2662,4
535,8	2628
536,2	2599,4
536,7	2581,8
537,1	2542,6
537,6	2526,4
538	2482,8
538,5	2413,4
538,9	2464,2
539,4	2406
539,8	2368,6
540,3	2359,6
540,7	2289,6
541,2	2296,4
541,6	2230,8
542,1	2229,6
542,5	2184,8
543	2182,2
543,4	2135,8
543,9	2155,2
544,3	2082,2
544,8	2007,6
545,2	2053,6
545,7	2041,4
546,1	2001,6
546,5	1977
547	1971,6
547,4	1935,4
547,9	1928,8
548,3	1842,2
548,8	1827,2
549,2	1850,6
549,7	1805
550,1	1815,6
550,6	1779,6
551	1750
551,5	1739,8
551,9	1713,8
552,4	1699,8
552,8	1669,6
553,3	1632,4
553,7	1649,2
554,2	1611
554,6	1573,8
555,1	1554,6
555,5	1530,6
555,9	1560,6
556,4	1523
556,8	1499,2
557,3	1460,4
557,7	1475,6
558,2	1435
558,6	1417,6
559,1	1410,6
559,5	1398,4
560	1381,2
560,4	1392,8
560,9	1333,8
561,3	1355,4
561,8	1312,6
562,2	1314,6
562,7	1310,8
563,1	1296,8
563,6	1238,8
564	1246,8
564,4	1246
564,9	1199,6
565,3	1204,4
565,8	1167,2
566,2	1157,6
566,7	1182,6
567,1	1133
567,6	1132,8
568	1108,4
568,5	1118,8
568,9	1077,8
569,4	1051,8
569,8	1068,8
570,3	1038
570,7	1068,6
571,1	1043,8
571,6	1051,8
572	1031,8
572,5	995,2
572,9	1003,8
573,4	977,6
573,8	971,2
574,3	970,2
574,7	975,2
575,2	962
575,6	957,4
576,1	934,8
576,5	921,2
576,9	888,6
577,4	880,8
577,8	887,8
578,3	895,4
578,7	839,8
579,2	856,6
579,6	882,6
580,1	831,8
580,5	862,6
581	827,6
581,4	842,6
581,9	819,4
582,3	770,8
582,7	799,6
583,2	739,4
583,6	745,4
584,1	761,6
584,5	763,6
585	762,2
585,4	732,8
585,9	722,8
586,3	718,2
586,8	735,2
587,2	688,6
587,6	710,8
588,1	690,2
588,5	699
589	695,4
589,4	679,8
589,9	693,4
590,3	687,6
590,8	675
591,2	652
591,7	641,4
592,1	631,8
592,5	614
593	656,8
593,4	613,8
593,9	633
594,3	650,2
594,8	609,8
595,2	587
595,7	597,6
596,1	584,4
596,6	597,4
597	569,8
597,4	565,2
597,9	583,2
598,3	551,2
598,8	582,6
599,2	599,8
599,7	538,4
600,1	557,6
600,6	552
601	562,2
601,4	556,2
601,9	527
602,3	527,4
602,8	538
603,2	552,6
603,7	525,8
604,1	508
604,6	498,6
605	479,4
605,4	505,6
605,9	489,2
606,3	484,8
606,8	469
607,2	489,2
607,7	482,8
608,1	481
608,6	474,4
609	469
609,4	497,4
609,9	449,2
610,3	458,2
610,8	465,8
611,2	445,2
611,7	443,8
612,1	462,6
612,6	423,2
613	452,8
613,4	413,8
613,9	410,8
614,3	431,6
614,8	405
615,2	457,2
615,7	443,2
616,1	413,2
616,6	444,4
617	401,4
617,4	399,6
617,9	404,8
618,3	376
618,8	400,2
619,2	384
619,7	408,4
620,1	389,2
620,5	376,6
621	380,6
621,4	389,6
621,9	381,8
622,3	348,4
622,8	366
623,2	375,2
623,6	376,8
624,1	382,8
624,5	370,2
625	340,4
625,4	358
625,9	378,2
626,3	336
626,8	365,4
627,2	338,4
627,6	342,2
628,1	372,4
628,5	361,2
629	333,8
629,4	341
629,9	339,4
630,3	322,6
630,7	326,8
631,2	337,6
631,6	330
632,1	292,6
632,5	291
633	316,6
633,4	308,8
633,8	310,4
634,3	341,4
634,7	330
635,2	297
635,6	295,6
636,1	292,4
636,5	324,6
636,9	303,2
637,4	295
637,8	297,8
638,3	277,8
638,7	284,4
639,2	275
639,6	286
640	297
640,5	285
640,9	286,4
641,4	300,6
641,8	291,2
642,2	256,4
642,7	278,8
643,1	300,4
643,6	271,8
644	276,6
644,5	283,4
644,9	284,6
645,3	286,8
645,8	274,6
646,2	272,4
646,7	255,8
647,1	275
647,6	277
648	245,8
648,4	243,8
648,9	295,6
649,3	279,4
649,8	255,8
650,2	247,2
650,6	250
651,1	265,2
651,5	277,4
652	222,4
652,4	247,6
652,9	252,4
653,3	252,4
653,7	217,4
654,2	253,4
654,6	268
655,1	238,2
655,5	252
655,9	217,8
656,4	243,4
656,8	244,8
657,3	220
657,7	219,6
658,2	244
658,6	226,6
659	237,6
659,5	195,8
659,9	207,8
660,4	254,2
660,8	229,6
661,2	233,4
661,7	252,6
662,1	209
662,6	218,8
663	229,4
663,4	237,8
663,9	198,6
664,3	214,8
664,8	220,6
665,2	231,4
665,6	233
666,1	198,4
666,5	218,4
667	195
667,4	209,4
667,9	206,6
668,3	244,8
668,7	226
669,2	202
669,6	200,2
670,1	172,4
670,5	230,6
670,9	239
671,4	202
671,8	193,2
672,3	211,6
672,7	222
673,1	195,4
673,6	202
674	211
674,5	215,6
674,9	184,4
675,3	187,2
675,8	203,8
676,2	186,6
676,7	197,2
677,1	223,2
677,5	189,6
678	219,2
678,4	193,6
678,9	191,8
679,3	206,8
679,7	176
680,2	178,2
680,6	190,8
681,1	168
681,5	182,6
681,9	207,8
682,4	174,4
682,8	196,2
683,3	164,8
683,7	179,6
684,1	195,4
684,6	179
685	205,6
685,5	174,4
685,9	165,6
686,3	175
686,8	173,2
687,2	142,4
687,7	166,4
688,1	164,2
688,5	182
689	141,2
689,4	157,8
689,9	188,4
690,3	176,6
690,7	170,4
691,2	151,4
691,6	169,2
692	187,6
692,5	152,8
692,9	166,8
693,4	188
693,8	170,2
694,2	131,2
694,7	142,4
695,1	164,4
695,6	135,8
696	160,2
696,4	170
696,9	160,8
697,3	161,8
697,8	161,2
698,2	161,6
698,6	179,6
699,1	134,2
699,5	137,4
699,9	115,6
700,4	146,4
700,8	146,2
701,3	153,2
701,7	170,6
702,1	147,2
702,6	160
703	144,8
703,5	151,2
703,9	136,8
704,3	159,8
704,8	112,8
705,2	151,8
705,6	127,8
706,1	128,6
706,5	133,4
707	136,6
707,4	134,2
707,8	127,2
708,3	162,2
708,7	124,2
709,2	153
709,6	98,8
710	113
710,5	126
710,9	128,4
711,3	132,2
711,8	133,6
712,2	143
712,7	135,2
713,1	131,8
713,5	119,8
714	122,8
714,4	101,4
714,8	132
715,3	121,2
715,7	142,6
716,2	147
716,6	121,4
717	93
717,5	124,4
717,9	119
718,3	123
718,8	132
719,2	142
719,7	127,4
720,1	118
720,5	111,8
721	126,8
721,4	135,2
721,8	126,2
722,3	118,4
722,7	128
723,2	147
723,6	103,6
724	122,2
724,5	91,4
724,9	130,6
725,3	103,8
725,8	85,2
726,2	123,6
726,7	121,4
727,1	130,8
727,5	113,2
728	122,2
728,4	121
728,8	112
729,3	109,8
729,7	87,4
730,1	110,6
730,6	76,8
731	91,4
731,5	116,4
731,9	112,4
732,3	91,2
732,8	112,6
733,2	99,2
733,6	99,2
734,1	81,2
734,5	97,6
734,9	94,8
735,4	93
735,8	130,2
736,3	97
736,7	118,2
737,1	120,6
737,6	87,8
738	87,4
738,4	108
738,9	108,6
739,3	118,4
739,7	123,6
740,2	115,6
740,6	62,2
741,1	93,6
741,5	94,4
741,9	64,4
742,4	91,8
742,8	87,4
743,2	84,2
743,7	101,4
744,1	95,2
744,5	93,2
745	93,4
745,4	104,6
745,8	81,2
746,3	82,8
746,7	118,4
747,2	88,6
747,6	86,8
748	88,4
748,5	77,8
748,9	134,2
749,3	83,4
749,8	86,4
750,2	95,4
750,6	63,2
751,1	96,6
751,5	80,6
751,9	82
752,4	92,4
752,8	84,4
753,3	105,8
753,7	123
754,1	90,6
754,6	102,4
755	63,6
755,4	78,2
755,9	110,8
756,3	107,4
756,7	66
757,2	100,6
757,6	79,4
758	99
758,5	98,6
758,9	114,6
759,3	77,2
759,8	63,8
760,2	70
760,6	75,8
761,1	55
761,5	88,4
761,9	68,6
762,4	62,6
762,8	101,8
763,3	88,2
763,7	91,4
764,1	63,6
764,6	70,6
765	58,4
765,4	85,2
765,9	104,6
766,3	95,6
766,7	76,2
767,2	80,6
767,6	90,6
768	91,8
768,5	77,4
768,9	73,6
769,3	59,6
769,8	74
770,2	69,6
770,6	72,2
771,1	57
771,5	57,8
771,9	72
772,4	73,4
772,8	65,6
773,2	75,4
773,7	64,6
774,1	49,2
774,5	69,2
775	47,6
775,4	70,6
775,8	60,6
776,3	51
776,7	56
777,1	71,6
777,6	75,4
778	66
778,4	41,4
778,9	74,4
779,3	76,2
779,7	61
780,2	82,6
780,6	78
781	83,6
781,5	46
781,9	59,2
782,3	57
782,8	59,4
783,2	69
783,6	46,4
784,1	86,6
784,5	33,2
784,9	49,6
785,4	48,8
785,8	45,4
786,2	50,8
786,7	70,6
787,1	60,2
787,5	58,2
788	52,4
788,4	61,8
788,8	85,8
789,3	91
789,7	57,2
790,1	50,8
790,6	79,2
791	72,6
791,4	36,2
791,9	58,6
792,3	44,8
792,7	52,8
793,2	58,4
793,6	42,8
794	49,2
794,5	47,4
794,9	58
795,3	54
795,8	54,2
796,2	52,2
796,6	47,4
797,1	34,8
797,5	44,8
797,9	56
798,4	65,8
798,8	66,8
799,2	63,8
799,7	60,4
800,1	35,8
800,5	48,8
801	14,2
801,4	52,6
801,8	14,2
802,2	46,4
802,7	37,4
803,1	11,2
803,5	42,2
804	46,4
804,4	45,8
804,8	60,2
805,3	22,8
805,7	58,2
806,1	39
806,6	57,4
807	90,6
807,4	44,2
807,9	20,2
808,3	43
808,7	24,8
809,2	40,6
809,6	24
810	45,6
810,4	62,4
810,9	52,4
811,3	49,2
811,7	29,2
812,2	55,6
812,6	29
813	52,4
813,5	52,8
813,9	86,6
814,3	38,2
814,8	37,4
815,2	36
815,6	37
816,1	35,4
816,5	41,6
816,9	47,6
817,3	23,4
817,8	11,6
818,2	39,8
818,6	18,8
819,1	39,6
819,5	67
819,9	39,8
820,4	6,6
820,8	25,2
821,2	41,8
821,7	14,8
822,1	37,6
822,5	54,8
822,9	34
823,4	37
823,8	21,4
824,2	8,4
824,7	30
825,1	34,2
825,5	41,2
826	33,2
826,4	20,2
826,8	58,6
827,3	53,4
827,7	23,4
828,1	26,6
828,5	21,4
829	42
829,4	44,6
829,8	44,6
830,3	10,2
830,7	30,4
831,1	10,2
831,6	16,8
832	7,2
832,4	31,4
832,8	21
833,3	33,4
833,7	30,4
834,1	13,2
834,6	27,8
835	38,8
835,4	22,2
835,8	7,4
836,3	16,8
836,7	37,8
837,1	21,4
837,6	30,8
838	51
838,4	50,4
838,9	31,8
839,3	36,2
839,7	25,6
840,1	16
840,6	37,6
841	-2,2
841,4	13
841,9	31,2
842,3	50,8
842,7	45,2
843,1	21,8
843,6	19
844	22,2
844,4	3,4
844,9	18,4
845,3	27,8
845,7	20,8
846,2	-10,8
846,6	39,2
847	-1,6
847,4	14,8
847,9	39,4
848,3	31,8
848,7	13
849,2	0,8
849,6	51,4
850	4,4
850,4	79,8
850,9	27,6
851,3	15,6
851,7	35,8
852,2	31,4
852,6	11,8
853	14,8
853,4	22
853,9	24,4
854,3	-12
854,7	32,6
855,2	29,4
855,6	4
856	25,6
856,4	33,4
856,9	37,8
857,3	28,6
857,7	11
858,2	6,2
858,6	24
859	16,8
859,4	-2
859,9	14,6
860,3	19
860,7	38,2
861,1	61,6
861,6	29,8
862	34,6
862,4	49,6
862,9	36
863,3	50,4
863,7	8,8
864,1	10,6
864,6	18,8
865	36,6
865,4	35,2
865,9	2
866,3	16,2
866,7	4,8
867,1	24,2
867,6	54,8
868	16,2
868,4	9,2
868,8	43,4
869,3	32
869,7	1,2
870,1	42,2
870,6	37
871	-1
871,4	20,6
871,8	52,4
872,3	165
872,7	-16,6
873,1	28
873,5	44
874	3,4
874,4	22,4
874,8	7,2
875,3	23,6
875,7	6,8
876,1	5,4
876,5	17,6
877	24,8
877,4	13,6
877,8	26,6
878,2	-0,6
878,7	35,8
879,1	15,2
879,5	-5
879,9	7,2
880,4	13,8
880,8	0,6
881,2	25,4
881,7	37,2
882,1	2,8
882,5	-4,8
882,9	7
883,4	9,8
883,8	8,8
884,2	-14,8
884,6	-17,2
885,1	2,4
885,5	8
885,9	0,6
886,3	34,8
886,8	-8,8
887,2	-25,8
887,6	25
888	-2,8
888,5	-25
888,9	20,2
889,3	32,2
889,8	-5,2
890,2	26,2
890,6	-13,2
891	8,4
891,5	8
891,9	18,2
892,3	20
892,7	-6,8
893,2	24,2
893,6	-6,2
894	7
894,4	6,4
894,9	9,2
895,3	2
895,7	20,6
896,1	22,2
896,6	28,4
897	11,8
897,4	27,4
897,8	27,8
898,3	-14
898,7	0,6
899,1	1,4
899,5	8,4
900	9,6
900,4	-9,6
900,8	25
901,2	11,6
901,7	-17,4
902,1	8,4
902,5	31
902,9	9,6
903,4	10,6
903,8	-20,6
904,2	24,4
904,6	-32,2
905,1	-13,4
905,5	28,2
905,9	8,4
906,3	0,4
906,8	-2,2
907,2	3,8
907,6	-0,6
908	-19
908,5	10,8
908,9	4,8
909,3	-9,8
909,7	8,2
910,2	-6,8
910,6	21,8
911	19
911,4	10
911,9	3
912,3	3,6
912,7	23
913,1	17,8
913,6	-10
914	-2,2
914,4	-16,4
914,8	7,4
915,3	-10,4
915,7	-10,6
916,1	10
916,5	6,2
916,9	2
917,4	3,4
917,8	-24
918,2	-17,8
918,6	-18,4
919,1	0,2
919,5	-10
919,9	14
920,3	12,8
920,8	1
921,2	17,2
921,6	5,2
922	2
922,5	25,2
922,9	2,4
923,3	-22
923,7	14,4
924,2	9,6
924,6	-13
925	41
925,4	28,4
925,8	3,2
926,3	-23,8
926,7	2,4
927,1	12
927,5	2,6
928	7,2
928,4	23,4
928,8	-0,6
929,2	10,8
929,7	-2,4
930,1	33,8
930,5	38,8
930,9	1,6
931,3	6,2
931,8	-22,2
932,2	-5
932,6	-21,4
933	21,4
933,5	24
933,9	17,4
934,3	-1,8
934,7	18,8
935,2	-12,6
935,6	-8,8
936	6,4
936,4	3,6
936,8	7
937,3	-18,2
937,7	-0,4
938,1	17,4
938,5	3,4
939	-25,4
939,4	-9,2
939,8	-12,4
940,2	-1,8
940,6	-2,8
941,1	3,4
941,5	-14,2
941,9	43
942,3	-21,6
942,8	4,8
943,2	-5,6
943,6	14,4
944	9,4
944,4	-24,2
944,9	16,2
945,3	11,4
945,7	-17,6
946,1	14,2
946,6	20,2
947	-6,4
947,4	4,8
947,8	9,8
948,2	-3
948,7	-18,2
949,1	6,8
949,5	-4,4
949,9	-8,4
950,3	-25,8
950,8	13,8
951,2	-7
951,6	-17,2
952	26,2
952,5	9,2
952,9	-11,4
953,3	-0,4
953,7	12,2
954,1	-11,8
954,6	3,2
955	5
955,4	16,4
955,8	9
956,2	-29
956,7	-9,6
957,1	-25,8
957,5	26,4
957,9	11,4
958,3	-18,2
958,8	18
959,2	25
959,6	-24,8
960	-10,6
960,5	4,8
960,9	-9,2
961,3	-9,4
961,7	-20
962,1	-9,6
962,6	19,2
963	-8,2
963,4	-0
963,8	-0,2
964,2	-12,4
964,7	4,6
965,1	-8,6
965,5	32,6
965,9	-2,4
966,3	-1,2
966,8	8,8
967,2	-10,2
967,6	4,2
968	8,2
968,4	-5
968,9	-8,8
969,3	-5
969,7	14,2
970,1	5,6
970,5	-2,2
971	-13,8
971,4	-8,4
971,8	-7
972,2	-4
972,6	2,8
973,1	10,4
973,5	10
973,9	-12,4
974,3	-15
974,7	6,4
975,2	-9,4
975,6	-20
976	18,2
976,4	27,8
976,8	-5,4
977,3	22,8
977,7	16
978,1	-3,4
978,5	4,2
978,9	5,8
979,4	-1,8
979,8	25,4
980,2	-10,4
980,6	30,6
981	-16,8
981,5	-24,4
981,9	17,6
982,3	-13,4
982,7	-18,8
983,1	2,2
983,6	3,2
984	-16,2
984,4	-4,8
984,8	7,2
985,2	-16
985,6	-5,4
986,1	14,8
986,5	24,8
986,9	-3,4
987,3	8
987,7	18,8
988,2	4,4
988,6	20,6
989	-19,2
989,4	-2,8
989,8	16,8
990,3	1,8
990,7	7,4
991,1	14,4
991,5	3,6
991,9	13,2
992,3	11,4
992,8	9,2
993,2	17,2
993,6	-31,4
994	-46
994,4	2,6
994,9	-17,6
995,3	-31,6
995,7	10,2
996,1	-13
996,5	-0
996,9	-0,6
997,4	-14,2
997,8	-5,2
998,2	7,6
998,6	-22,4
999	24,6
999,5	-19,8
999,9	-0,4
1000,3	21
1000,7	27,6
1001,1	-4
1001,5	-62
1002	5,8
1002,4	-4,8
1002,8	10
1003,2	-11,4
1003,6	4,4
1004	-23,2
1004,5	6
1004,9	-22,2
1005,3	16,4
1005,7	-18,6
1006,1	22,6
1006,6	6
1007	8,4
1007,4	26
1007,8	-8
1008,2	-2,2
1008,6	26,4
1009,1	14,6
1009,5	4,2
1009,9	-7
1010,3	-1,6
1010,7	-3,4
1011,1	12
1011,6	7,4
1012	7
1012,4	-16
1012,8	12,6
1013,2	-27
1013,6	7,4
1014,1	6,2
1014,5	30
1014,9	3
1015,3	4,8
1015,7	-12,4
1016,1	-5
1016,6	10,2
1017	4,2
1017,4	1,4
1017,8	1
1018,2	10,8
1018,6	-6,8
1019,1	-12,4
1019,5	-20,2
1019,9	-33,6
1020,3	-4,6
1020,7	-4,2
1021,1	3,8
1021,6	4,2
1022	-20,8
1022,4	24,4
1022,8	-13,4
1023,2	-0,8
1023,6	-10,2
1024,1	-14,6
1024,5	3,8
1024,9	16,6
1025,3	39,2
1025,7	-2,8
1026,1	1,6
1026,6	3,4
1027	-4,8
1027,4	3,6
1027,8	16,4
1028,2	8,6
1028,6	7,2
1029	-22,8
1029,5	11,2
1029,9	-3,4
1030,3	8,6
1030,7	4,6
1031,1	29
1031,5	23,2
1032	-32,8
1032,4	33,2
1032,8	11,2
1033,2	-20,4
1033,6	5
1034	0,4
1034,4	10,2
1034,9	-9,6
1035,3	9
1035,7	-9,8
1036,1	4,4
1036,5	3
1036,9	14,4
1037,4	-20,2
1037,8	17,2
1038,2	-23,6
1038,6	-1,6
1039	-4,6
1039,4	17,4
1039,8	-5
1040,3	-3,8
1040,7	-0,2
1041,1	13,8
1041,5	42,6
1041,9	-13,8
1042,3	-3,8
1042,7	-40,6
1043,2	-19,8
1043,6	10,2
1044	-12,4
1044,4	-14
1044,8	11,4
1045,2	8,2
1045,6	-29
1046,1	5
1046,5	-22,6
1046,9	18,8
1047,3	-2,2
1047,7	-3
1048,1	-1,8
1048,5	-11
1049	3,2
1049,4	-11,4
1049,8	-1,4
1050,2	35,2
1050,6	29,2
1051	-0,4
1051,4	-12,8
1051,9	-2
1052,3	-1,2
1052,7	-6
1053,1	4,4
1053,5	22,4
1053,9	1,8
1054,3	11,4
1054,8	1,4
1055,2	-8,8
1055,6	14,4
1056	6,2
1056,4	17,4
1056,8	11,4
1057,2	-34
1057,6	-1,2
1058,1	21
1058,5	-18
1058,9	-22,2
1059,3	-6
1059,7	10
1060,1	17
1060,5	12
1061	11,4
1061,4	-18,4
1061,8	-5
1062,2	-0,8
1062,6	-20,4
1063	21,2
1063,4	-18,4
1063,8	18
1064,3	8,8
1064,7	13,2
1065,1	-16,2
1065,5	29,8
1065,9	-9
1066,3	-6,2
1066,7	0,4
1067,1	-12,8
1067,6	14,6
1068	-2,6
1068,4	11,2
1068,8	-8,2
1069,2	11
1069,6	21,4
1070	-11
1070,4	-5,6
1070,9	13,4
1071,3	-0,4
1071,7	7,4
1072,1	-7,2
1072,5	-23,8
1072,9	6,4
1073,3	8
1073,7	-8,4
1074,2	1,8
1074,6	-5,6
1075	-6,8
1075,4	4,2
1075,8	-22
1076,2	-2,2
1076,6	38,6
1077	31
1077,5	6,2
1077,9	-7,4
1078,3	-4,8
1078,7	-52,2
1079,1	12,6
1079,5	-9
1079,9	12
1080,3	-10
1080,7	17,6
1081,2	22,4
1081,6	3,6
1082	10
1082,4	9,8
1082,8	3
1083,2	-29,4
1083,6	-17,6
1084	-22,6
1084,5	0,4
1084,9	6,2
1085,3	-1,2
1085,7	-8,4
1086,1	-10,2
1086,5	0,2
1086,9	-23
1087,3	1,8
1087,7	-30,4
1088,2	-9,4
1088,6	8,2
1089	17
1089,4	8,2
1089,8	-10,4
1090,2	19,4
1090,6	-20
1091	12
1091,4	-45,8
1091,9	0,2
1092,3	19,6
1092,7	14,6
1093,1	12,8
1093,5	11,4
1093,9	0,4
1094,3	5,8
1094,7	9,6
1095,1	-8
1095,5	-10,6
1096	-1
1096,4	25,8
1096,8	8,6
1097,2	-11,2
1097,6	1
1098	1,6
1098,4	-2,2
1098,8	13
1099,2	3
1099,6	-13,6
1100,1	6,2
1100,5	-7,6
1100,9	1
1101,3	36,8
1101,7	-7,2
1102,1	-1,2
1102,5	-4
1102,9	-18,6
1103,3	-6
1103,7	2,6
1104,2	5,4
1104,6	-0,2
1105	-9,6
1105,4	15
1105,8	21,8
1106,2	1,2
1106,6	5,6
1107	-0,8
1107,4	0,8
1107,8	-0,2
1108,3	1,2
