Data from Subt2_00009.txt Node
Date: Wed Aug 02 18:59:20 MSK 2023
User: vat
Spectrometer: MAYP114033
Trigger mode: 0
Integration Time (sec): 7,000000E-1
Scans to average: 5
Electric dark correction enabled: true
Nonlinearity correction enabled: false
Boxcar width: 0
XAxis mode: Wavelengths
Number of Pixels in Spectrum: 2068
>>>>>Begin Spectral Data<<<<<
199,4	-0,967
199,9	-0,167
200,4	-1,567
200,8	2,233
201,3	4,633
201,8	-7,367
202,2	2,833
202,7	9,633
203,2	11,433
203,6	-2,967
204,1	-6,767
204,6	-8,367
205	7,633
205,5	12,833
206	-15,967
206,4	25,633
206,9	7,633
207,4	3,633
207,8	-3,367
208,3	-3,367
208,8	-16,367
209,2	-1,167
209,7	9,033
210,2	18,633
210,6	29,833
211,1	-5,367
211,5	-1,167
212	38,233
212,5	0,833
212,9	-17,967
213,4	-12,767
213,9	15,233
214,3	-15,567
214,8	21,233
215,3	-9,967
215,7	-21,767
216,2	24,433
216,7	4,433
217,1	15,233
217,6	15,433
218,1	-6,967
218,5	1,033
219	2,433
219,5	-0,367
219,9	-11,367
220,4	1,433
220,9	-21,367
221,3	2,033
221,8	26,033
222,3	-21,967
222,7	-13,367
223,2	10,633
223,6	4,433
224,1	-3,367
224,6	0,633
225	9,833
225,5	13,633
226	18,233
226,4	2,033
226,9	4,633
227,4	-17,567
227,8	5,033
228,3	9,433
228,8	26,833
229,2	-7,567
229,7	20,433
230,2	37,033
230,6	44,833
231,1	31,833
231,5	16,433
232	-0,567
232,5	19,433
232,9	16,833
233,4	-14,367
233,9	16,233
234,3	1,433
234,8	30,833
235,3	-9,167
235,7	21,033
236,2	-4,967
236,7	2,833
237,1	-0,767
237,6	2,033
238,1	31,833
238,5	-12,767
239	-18,167
239,4	-3,567
239,9	2,433
240,4	2,433
240,8	0,233
241,3	-26,367
241,8	5,433
242,2	-16,567
242,7	3,033
243,2	-4,767
243,6	21,233
244,1	25,433
244,6	-1,367
245	2,633
245,5	-13,567
245,9	7,233
246,4	-5,367
246,9	-5,567
247,3	-10,967
247,8	2,833
248,3	16,633
248,7	-7,967
249,2	-20,767
249,7	-1,367
250,1	34,633
250,6	13,233
251	23,033
251,5	15,633
252	19,633
252,4	22,633
252,9	7,433
253,4	-20,167
253,8	8,633
254,3	17,833
254,8	6,433
255,2	-11,967
255,7	24,633
256,1	4,833
256,6	3,433
257,1	-11,167
257,5	19,833
258	13,233
258,5	4,033
258,9	32,433
259,4	51,233
259,9	1,833
260,3	-10,967
260,8	13,833
261,2	-3,567
261,7	-3,367
262,2	-1,167
262,6	31,833
263,1	13,033
263,6	12,033
264	-12,967
264,5	-2,567
264,9	3,233
265,4	31,833
265,9	-27,167
266,3	0,833
266,8	7,833
267,3	-8,967
267,7	20,833
268,2	-9,167
268,7	15,033
269,1	-0,167
269,6	11,833
270	-7,767
270,5	4,033
271	31,833
271,4	-4,367
271,9	3,033
272,4	13,433
272,8	11,233
273,3	0,433
273,7	11,833
274,2	4,633
274,7	56,233
275,1	20,033
275,6	-2,167
276,1	8,433
276,5	-13,367
277	-6,367
277,4	-4,167
277,9	-28,567
278,4	-2,567
278,8	-10,167
279,3	-0,167
279,8	-11,167
280,2	29,433
280,7	-2,567
281,1	9,433
281,6	-14,167
282,1	16,033
282,5	21,633
283	8,233
283,4	0,233
283,9	-11,567
284,4	-13,767
284,8	12,633
285,3	-18,167
285,8	-6,567
286,2	-2,167
286,7	15,233
287,1	-24,167
287,6	-8,367
288,1	-12,967
288,5	19,433
289	-10,967
289,5	8,033
289,9	-12,167
290,4	-5,967
290,8	-1,767
291,3	27,433
291,8	5,633
292,2	-5,967
292,7	-19,567
293,1	13,033
293,6	-8,767
294,1	-24,767
294,5	-1,367
295	14,033
295,5	20,633
295,9	19,633
296,4	43,433
296,8	-12,967
297,3	-26,567
297,8	22,233
298,2	26,233
298,7	-4,567
299,1	8,433
299,6	14,033
300,1	-3,167
300,5	-13,967
301	0,633
301,5	-5,767
301,9	-7,167
302,4	-3,367
302,8	32,633
303,3	-10,567
303,8	0,033
304,2	-8,167
304,7	1,833
305,1	12,633
305,6	-15,767
306,1	3,833
306,5	35,633
307	2,233
307,4	-23,367
307,9	31,633
308,4	1,633
308,8	11,233
309,3	8,433
309,8	0,833
310,2	21,433
310,7	7,033
311,1	-20,367
311,6	-14,367
312,1	11,433
312,5	-27,767
313	-30,767
313,4	21,233
313,9	-7,567
314,4	-6,167
314,8	12,033
315,3	-2,567
315,7	-4,567
316,2	28,433
316,7	2,033
317,1	28,033
317,6	29,233
318	-14,767
318,5	5,433
319	26,433
319,4	10,433
319,9	12,833
320,3	-2,567
320,8	-3,767
321,3	4,433
321,7	-8,167
322,2	20,433
322,6	4,033
323,1	0,633
323,6	10,433
324	23,433
324,5	-2,767
324,9	-6,167
325,4	18,633
325,9	5,433
326,3	-17,767
326,8	27,833
327,2	-11,967
327,7	-15,167
328,2	25,633
328,6	14,833
329,1	50,033
329,5	-16,967
330	-6,567
330,5	-6,767
330,9	37,433
331,4	5,433
331,8	0,433
332,3	-16,167
332,8	26,433
333,2	-20,967
333,7	7,433
334,1	4,833
334,6	-6,167
335,1	-11,367
335,5	17,833
336	13,233
336,4	14,433
336,9	13,233
337,4	-20,567
337,8	-9,767
338,3	-32,167
338,7	38,833
339,2	27,233
339,7	14,833
340,1	21,433
340,6	13,433
341	-4,967
341,5	5,433
342	7,233
342,4	1,633
342,9	-18,167
343,3	22,033
343,8	21,233
344,2	37,233
344,7	-8,367
345,2	8,433
345,6	-19,967
346,1	16,633
346,5	-5,767
347	-3,967
347,5	13,833
347,9	27,233
348,4	2,033
348,8	1,033
349,3	-18,367
349,8	7,633
350,2	5,833
350,7	-2,767
351,1	43,633
351,6	10,633
352	2,833
352,5	12,033
353	-10,567
353,4	-2,367
353,9	34,233
354,3	6,433
354,8	-3,767
355,3	26,033
355,7	28,233
356,2	27,233
356,6	0,033
357,1	52,433
357,5	55,233
358	67,233
358,5	79,433
358,9	101,633
359,4	93,433
359,8	97,033
360,3	143,433
360,8	136,633
361,2	177,433
361,7	214,633
362,1	194,633
362,6	246,833
363	285,633
363,5	312,833
364	328,033
364,4	388,233
364,9	385,833
365,3	456,033
365,8	483,833
366,3	530,633
366,7	541,033
367,2	590,033
367,6	582,833
368,1	607,033
368,5	628,433
369	626,033
369,5	603,233
369,9	643,233
370,4	613,433
370,8	604,833
371,3	562,833
371,7	584,833
372,2	538,033
372,7	503,633
373,1	506,433
373,6	485,033
374	398,033
374,5	397,833
374,9	382,433
375,4	327,233
375,9	310,633
376,3	314,833
376,8	276,233
377,2	238,833
377,7	214,633
378,2	184,833
378,6	183,633
379,1	155,033
379,5	168,233
380	173,233
380,4	151,833
380,9	126,233
381,4	93,833
381,8	98,633
382,3	98,633
382,7	89,233
383,2	108,633
383,6	54,433
384,1	79,633
384,6	86,233
385	56,233
385,5	51,633
385,9	67,033
386,4	44,833
386,8	39,833
387,3	31,433
387,7	55,433
388,2	40,233
388,7	40,433
389,1	29,033
389,6	28,033
390	28,433
390,5	34,433
390,9	42,033
391,4	-0,367
391,9	19,033
392,3	-6,167
392,8	18,433
393,2	32,033
393,7	14,233
394,1	39,233
394,6	15,833
395,1	16,433
395,5	48,633
396	9,633
396,4	11,633
396,9	14,833
397,3	22,033
397,8	15,233
398,2	26,233
398,7	27,233
399,2	46,033
399,6	25,833
400,1	33,833
400,5	2,033
401	14,033
401,4	34,833
401,9	13,833
402,4	-3,767
402,8	20,433
403,3	16,833
403,7	27,433
404,2	13,033
404,6	37,233
405,1	9,233
405,5	32,233
406	-5,367
406,5	29,433
406,9	43,033
407,4	28,033
407,8	4,033
408,3	21,433
408,7	26,433
409,2	44,233
409,6	32,233
410,1	9,433
410,6	4,033
411	22,633
411,5	46,633
411,9	27,833
412,4	40,033
412,8	40,633
413,3	32,833
413,7	44,433
414,2	39,233
414,7	56,233
415,1	39,033
415,6	39,433
416	74,033
416,5	61,833
416,9	38,833
417,4	96,233
417,8	103,033
418,3	88,233
418,8	97,233
419,2	78,833
419,7	122,633
420,1	95,433
420,6	97,833
421	111,033
421,5	126,433
421,9	128,233
422,4	123,433
422,8	134,633
423,3	127,833
423,8	130,233
424,2	182,433
424,7	149,033
425,1	132,833
425,6	165,033
426	203,833
426,5	191,033
426,9	178,033
427,4	195,433
427,9	218,233
428,3	215,833
428,8	280,233
429,2	249,833
429,7	266,233
430,1	261,033
430,6	244,033
431	308,233
431,5	315,833
431,9	333,633
432,4	323,633
432,8	335,433
433,3	367,233
433,8	393,633
434,2	413,033
434,7	414,833
435,1	433,033
435,6	457,033
436	477,633
436,5	490,633
436,9	504,233
437,4	581,433
437,8	574,633
438,3	606,233
438,8	617,633
439,2	629,233
439,7	708,033
440,1	724,033
440,6	733,833
441	755,233
441,5	790,633
441,9	825,233
442,4	860,433
442,8	901,033
443,3	920,233
443,7	985,433
444,2	996,033
444,7	1098,233
445,1	1117,633
445,6	1171,233
446	1226,833
446,5	1255,233
446,9	1317,633
447,4	1377,633
447,8	1400,233
448,3	1471,233
448,7	1521,433
449,2	1549,633
449,6	1592,433
450,1	1687,433
450,6	1725,233
451	1761,233
451,5	1805,633
451,9	1866,833
452,4	1919,433
452,8	1973,833
453,3	2059,633
453,7	2095,833
454,2	2177,033
454,6	2201,033
455,1	2289,433
455,5	2388,233
456	2415,833
456,4	2493,633
456,9	2579,233
457,3	2615,833
457,8	2670,233
458,3	2752,033
458,7	2801,833
459,2	2855,833
459,6	2963,033
460,1	2997,233
460,5	3084,233
461	3173,233
461,4	3239,033
461,9	3281,833
462,3	3332,833
462,8	3430,433
463,2	3444,633
463,7	3495,233
464,1	3611,633
464,6	3674,233
465	3727,233
465,5	3826,833
466	3928,833
466,4	3973,833
466,9	4033,433
467,3	4029,833
467,8	4136,633
468,2	4199,033
468,7	4224,033
469,1	4289,233
469,6	4372,633
470	4393,633
470,5	4502,833
470,9	4575,433
471,4	4601,833
471,8	4657,633
472,3	4703,433
472,7	4742,433
473,2	4828,433
473,6	4827,433
474,1	4946,233
474,5	5001,033
475	5038,833
475,4	5084,233
475,9	5129,833
476,4	5138,833
476,8	5256,033
477,3	5275,433
477,7	5288,033
478,2	5290,633
478,6	5328,633
479,1	5402,433
479,5	5468,033
480	5492,633
480,4	5516,233
480,9	5562,033
481,3	5544,033
481,8	5583,833
482,2	5617,033
482,7	5673,633
483,1	5693,033
483,6	5697,633
484	5654,433
484,5	5743,033
484,9	5736,633
485,4	5710,633
485,8	5751,833
486,3	5776,833
486,7	5786,033
487,2	5804,833
487,6	5790,233
488,1	5838,833
488,5	5821,233
489	5839,833
489,4	5861,433
489,9	5829,633
490,4	5795,233
490,8	5849,033
491,3	5802,233
491,7	5795,033
492,2	5815,233
492,6	5809,033
493,1	5777,833
493,5	5737,433
494	5732,633
494,4	5752,433
494,9	5744,433
495,3	5734,633
495,8	5669,833
496,2	5685,233
496,7	5654,433
497,1	5656,233
497,6	5649,233
498	5599,833
498,5	5581,633
498,9	5588,433
499,4	5554,433
499,8	5550,833
500,3	5488,633
500,7	5456,833
501,2	5446,433
501,6	5401,033
502,1	5380,033
502,5	5351,633
503	5328,833
503,4	5308,433
503,9	5251,233
504,3	5263,033
504,8	5231,033
505,2	5183,033
505,7	5143,633
506,1	5150,033
506,6	5092,433
507	5047,433
507,5	5035,233
507,9	4988,833
508,4	4894,033
508,8	4923,833
509,3	4831,033
509,7	4887,433
510,2	4796,433
510,6	4736,833
511,1	4721,233
511,5	4709,833
512	4647,233
512,4	4663,833
512,9	4582,833
513,3	4549,633
513,8	4480,033
514,2	4427,633
514,7	4440,433
515,1	4385,033
515,6	4357,433
516	4327,633
516,5	4232,233
516,9	4251,433
517,4	4126,233
517,8	4095,433
518,3	4089,233
518,7	4070,633
519,2	4005,433
519,6	3981,833
520,1	3937,433
520,5	3877,033
521	3847,433
521,4	3832,233
521,9	3765,833
522,3	3739,633
522,8	3713,633
523,2	3682,633
523,7	3620,833
524,1	3597,233
524,6	3533,033
525	3505,233
525,5	3467,233
525,9	3446,433
526,4	3372,033
526,8	3350,633
527,3	3276,033
527,7	3256,033
528,2	3259,433
528,6	3232,033
529,1	3214,833
529,5	3108,233
530	3128,033
530,4	3073,233
530,9	3032,833
531,3	3024,833
531,8	2954,833
532,2	2961,033
532,6	2898,033
533,1	2852,633
533,5	2832,633
534	2803,233
534,4	2774,033
534,9	2728,833
535,3	2724,233
535,8	2636,033
536,2	2624,433
536,7	2626,233
537,1	2594,033
537,6	2553,833
538	2495,633
538,5	2490,033
538,9	2462,233
539,4	2426,833
539,8	2423,833
540,3	2352,233
540,7	2360,433
541,2	2329,233
541,6	2287,633
542,1	2258,633
542,5	2257,433
543	2199,833
543,4	2193,633
543,9	2167,433
544,3	2161,433
544,8	2107,233
545,2	2084,833
545,7	2095,033
546,1	2041,633
546,5	2015,433
547	1974,233
547,4	1980,633
547,9	1948,633
548,3	1954,433
548,8	1944,033
549,2	1842,233
549,7	1873,833
550,1	1852,233
550,6	1830,433
551	1802,833
551,5	1791,833
551,9	1753,433
552,4	1721,433
552,8	1724,033
553,3	1669,033
553,7	1713,033
554,2	1713,033
554,6	1635,033
555,1	1629,633
555,5	1644,033
555,9	1584,033
556,4	1592,233
556,8	1586,233
557,3	1548,033
557,7	1518,833
558,2	1522,633
558,6	1517,233
559,1	1480,433
559,5	1493,033
560	1433,633
560,4	1436,233
560,9	1398,033
561,3	1433,033
561,8	1401,633
562,2	1356,433
562,7	1317,633
563,1	1323,033
563,6	1319,433
564	1331,633
564,4	1296,433
564,9	1283,833
565,3	1309,633
565,8	1229,033
566,2	1261,033
566,7	1230,233
567,1	1207,033
567,6	1220,833
568	1194,033
568,5	1173,233
568,9	1171,833
569,4	1174,233
569,8	1122,633
570,3	1114,633
570,7	1128,633
571,1	1106,833
571,6	1128,433
572	1116,433
572,5	1089,233
572,9	1049,633
573,4	1065,833
573,8	1032,033
574,3	1031,233
574,7	1011,433
575,2	1029,033
575,6	1010,233
576,1	990,433
576,5	997,433
576,9	973,833
577,4	970,433
577,8	964,833
578,3	946,633
578,7	914,433
579,2	958,433
579,6	891,833
580,1	906,433
580,5	896,033
581	878,633
581,4	847,833
581,9	858,233
582,3	843,833
582,7	857,633
583,2	847,433
583,6	823,233
584,1	849,433
584,5	827,033
585	788,833
585,4	812,633
585,9	818,233
586,3	773,033
586,8	812,233
587,2	774,833
587,6	746,633
588,1	742,633
588,5	778,033
589	777,633
589,4	723,033
589,9	734,633
590,3	716,033
590,8	698,433
591,2	725,633
591,7	714,033
592,1	702,633
592,5	709,433
593	704,633
593,4	687,233
593,9	686,433
594,3	694,233
594,8	654,633
595,2	679,433
595,7	654,033
596,1	640,433
596,6	628,633
597	619,833
597,4	624,633
597,9	619,633
598,3	615,833
598,8	611,233
599,2	600,833
599,7	593,833
600,1	595,433
600,6	615,233
601	585,833
601,4	595,633
601,9	609,433
602,3	558,233
602,8	582,233
603,2	567,833
603,7	569,033
604,1	567,833
604,6	537,233
605	534,033
605,4	523,033
605,9	569,433
606,3	533,033
606,8	541,033
607,2	524,033
607,7	513,833
608,1	539,433
608,6	514,833
609	510,233
609,4	496,633
609,9	516,033
610,3	507,633
610,8	513,033
611,2	484,233
611,7	489,833
612,1	500,233
612,6	474,033
613	478,633
613,4	515,433
613,9	488,233
614,3	457,433
614,8	493,233
615,2	452,633
615,7	421,033
616,1	445,233
616,6	475,833
617	433,833
617,4	439,833
617,9	444,033
618,3	446,033
618,8	435,433
619,2	424,433
619,7	416,433
620,1	446,433
620,5	451,033
621	443,033
621,4	427,233
621,9	411,433
622,3	418,233
622,8	444,633
623,2	401,033
623,6	434,433
624,1	422,433
624,5	426,433
625	379,233
625,4	407,433
625,9	406,233
626,3	362,233
626,8	386,033
627,2	393,633
627,6	379,233
628,1	375,833
628,5	358,433
629	386,633
629,4	381,433
629,9	395,233
630,3	345,233
630,7	358,633
631,2	386,233
631,6	355,033
632,1	342,033
632,5	343,233
633	343,233
633,4	364,633
633,8	349,633
634,3	331,033
634,7	333,833
635,2	339,633
635,6	346,433
636,1	317,033
636,5	313,433
636,9	325,633
637,4	349,633
637,8	341,033
638,3	334,633
638,7	343,633
639,2	312,433
639,6	342,433
640	321,233
640,5	288,633
640,9	344,633
641,4	316,833
641,8	283,833
642,2	341,433
642,7	304,633
643,1	307,433
643,6	330,433
644	302,233
644,5	334,033
644,9	281,633
645,3	338,033
645,8	285,033
646,2	285,633
646,7	295,633
647,1	290,033
647,6	316,233
648	319,633
648,4	293,433
648,9	286,033
649,3	337,433
649,8	294,833
650,2	287,633
650,6	242,633
651,1	276,033
651,5	262,833
652	272,033
652,4	288,433
652,9	261,233
653,3	278,633
653,7	259,233
654,2	297,633
654,6	291,833
655,1	284,833
655,5	297,833
655,9	241,433
656,4	269,633
656,8	259,433
657,3	269,033
657,7	285,033
658,2	247,233
658,6	231,233
659	276,633
659,5	234,633
659,9	238,833
660,4	257,033
660,8	227,833
661,2	237,633
661,7	236,233
662,1	262,233
662,6	258,033
663	282,633
663,4	271,233
663,9	232,033
664,3	224,033
664,8	247,033
665,2	217,033
665,6	253,033
666,1	225,833
666,5	233,033
667	224,833
667,4	234,633
667,9	223,033
668,3	229,233
668,7	242,033
669,2	256,033
669,6	222,033
670,1	234,633
670,5	254,633
670,9	208,033
671,4	203,833
671,8	234,433
672,3	212,233
672,7	202,033
673,1	223,433
673,6	231,033
674	214,433
674,5	211,233
674,9	204,233
675,3	232,433
675,8	261,233
676,2	190,433
676,7	222,833
677,1	212,233
677,5	202,833
678	192,833
678,4	195,433
678,9	207,433
679,3	218,833
679,7	199,433
680,2	195,433
680,6	220,833
681,1	230,233
681,5	210,033
681,9	187,233
682,4	199,033
682,8	180,233
683,3	184,833
683,7	190,433
684,1	197,433
684,6	199,633
685	183,433
685,5	192,633
685,9	193,833
686,3	170,833
686,8	151,033
687,2	192,633
687,7	180,233
688,1	188,633
688,5	198,833
689	175,233
689,4	180,233
689,9	191,433
690,3	162,633
690,7	174,033
691,2	170,433
691,6	178,233
692	201,033
692,5	199,233
692,9	182,033
693,4	171,433
693,8	190,233
694,2	179,633
694,7	152,433
695,1	143,633
695,6	148,033
696	137,233
696,4	142,033
696,9	178,233
697,3	160,833
697,8	155,433
698,2	165,033
698,6	139,033
699,1	179,033
699,5	157,633
699,9	200,633
700,4	158,433
700,8	167,633
701,3	164,833
701,7	162,033
702,1	170,233
702,6	147,633
703	162,033
703,5	139,433
703,9	164,033
704,3	151,633
704,8	168,633
705,2	178,833
705,6	156,433
706,1	153,033
706,5	150,833
707	172,833
707,4	150,433
707,8	151,033
708,3	153,833
708,7	167,633
709,2	167,233
709,6	113,833
710	131,833
710,5	151,433
710,9	118,833
711,3	135,633
711,8	122,833
712,2	145,833
712,7	142,033
713,1	166,833
713,5	164,433
714	132,033
714,4	124,233
714,8	133,433
715,3	176,033
715,7	133,233
716,2	157,033
716,6	159,033
717	162,033
717,5	115,033
717,9	123,433
718,3	142,433
718,8	117,033
719,2	119,833
719,7	130,033
720,1	137,033
720,5	134,233
721	156,033
721,4	129,233
721,8	113,033
722,3	114,033
722,7	130,233
723,2	116,033
723,6	114,033
724	115,833
724,5	104,433
724,9	143,233
725,3	118,633
725,8	163,033
726,2	80,633
726,7	111,433
727,1	117,833
727,5	142,033
728	115,233
728,4	100,433
728,8	123,833
729,3	148,633
729,7	114,633
730,1	126,833
730,6	116,033
731	95,433
731,5	124,833
731,9	122,833
732,3	125,033
732,8	106,033
733,2	103,433
733,6	115,233
734,1	80,233
734,5	99,433
734,9	110,833
735,4	115,233
735,8	124,233
736,3	109,433
736,7	106,233
737,1	94,033
737,6	117,633
738	117,033
738,4	99,233
738,9	104,833
739,3	131,033
739,7	130,633
740,2	101,233
740,6	116,633
741,1	84,033
741,5	108,233
741,9	106,233
742,4	95,233
742,8	105,833
743,2	109,633
743,7	97,433
744,1	98,233
744,5	88,833
745	110,633
745,4	80,433
745,8	88,433
746,3	104,633
746,7	95,833
747,2	104,433
747,6	80,633
748	70,833
748,5	112,033
748,9	113,833
749,3	97,033
749,8	72,433
750,2	97,433
750,6	75,633
751,1	121,833
751,5	100,433
751,9	100,233
752,4	110,433
752,8	128,233
753,3	97,833
753,7	103,833
754,1	67,033
754,6	92,233
755	105,633
755,4	75,233
755,9	106,433
756,3	79,033
756,7	103,833
757,2	120,433
757,6	79,033
758	89,833
758,5	94,633
758,9	107,233
759,3	97,833
759,8	102,433
760,2	73,433
760,6	94,233
761,1	59,833
761,5	82,633
761,9	100,433
762,4	68,233
762,8	125,833
763,3	73,433
763,7	74,433
764,1	77,833
764,6	94,833
765	66,833
765,4	81,233
765,9	71,833
766,3	69,833
766,7	60,433
767,2	77,833
767,6	42,633
768	76,633
768,5	90,833
768,9	86,833
769,3	95,633
769,8	75,233
770,2	84,633
770,6	72,433
771,1	105,833
771,5	60,033
771,9	98,833
772,4	81,433
772,8	60,833
773,2	102,433
773,7	89,033
774,1	95,433
774,5	73,033
775	83,633
775,4	71,833
775,8	89,833
776,3	95,433
776,7	68,433
777,1	64,233
777,6	80,833
778	74,233
778,4	76,833
778,9	74,633
779,3	84,033
779,7	93,033
780,2	93,433
780,6	101,033
781	71,433
781,5	65,433
781,9	89,633
782,3	62,433
782,8	66,233
783,2	79,033
783,6	61,433
784,1	77,233
784,5	85,833
784,9	58,633
785,4	73,633
785,8	71,633
786,2	29,233
786,7	61,033
787,1	67,833
787,5	54,633
788	42,833
788,4	88,833
788,8	67,033
789,3	62,033
789,7	80,833
790,1	41,433
790,6	67,433
791	29,233
791,4	62,633
791,9	64,433
792,3	57,633
792,7	55,433
793,2	44,433
793,6	70,433
794	48,233
794,5	59,433
794,9	66,233
795,3	45,433
795,8	50,033
796,2	65,033
796,6	82,833
797,1	62,033
797,5	94,433
797,9	76,033
798,4	69,033
798,8	70,833
799,2	29,633
799,7	58,233
800,1	49,233
800,5	80,633
801	90,433
801,4	72,833
801,8	74,633
802,2	50,033
802,7	22,233
803,1	73,233
803,5	54,833
804	55,433
804,4	43,433
804,8	47,433
805,3	55,633
805,7	36,033
806,1	39,833
806,6	48,433
807	36,033
807,4	54,433
807,9	57,833
808,3	48,033
808,7	54,233
809,2	44,633
809,6	27,633
810	62,233
810,4	59,633
810,9	79,033
811,3	78,033
811,7	66,833
812,2	19,433
812,6	55,633
813	50,033
813,5	58,433
813,9	48,433
814,3	59,833
814,8	43,433
815,2	50,633
815,6	29,433
816,1	84,233
816,5	63,233
816,9	47,433
817,3	18,633
817,8	45,633
818,2	45,633
818,6	56,233
819,1	51,033
819,5	67,433
819,9	16,233
820,4	42,433
820,8	36,633
821,2	43,033
821,7	63,033
822,1	28,833
822,5	64,633
822,9	30,833
823,4	39,833
823,8	30,433
824,2	49,833
824,7	60,633
825,1	53,633
825,5	15,433
826	51,233
826,4	15,033
826,8	41,633
827,3	29,633
827,7	38,833
828,1	47,833
828,5	40,833
829	37,833
829,4	28,633
829,8	26,833
830,3	33,233
830,7	14,433
831,1	40,433
831,6	38,233
832	45,633
832,4	31,433
832,8	51,033
833,3	47,433
833,7	37,233
834,1	16,033
834,6	31,033
835	42,233
835,4	56,233
835,8	43,233
836,3	43,433
836,7	57,833
837,1	32,433
837,6	13,433
838	38,433
838,4	36,833
838,9	50,233
839,3	21,633
839,7	25,833
840,1	42,433
840,6	32,833
841	40,433
841,4	20,033
841,9	52,833
842,3	28,233
842,7	32,033
843,1	16,833
843,6	44,433
844	54,233
844,4	16,233
844,9	23,233
845,3	52,433
845,7	48,033
846,2	35,833
846,6	11,233
847	26,633
847,4	43,433
847,9	47,233
848,3	42,833
848,7	21,233
849,2	24,833
849,6	14,633
850	43,633
850,4	22,433
850,9	33,633
851,3	33,633
851,7	11,833
852,2	36,633
852,6	82,033
853	24,433
853,4	27,233
853,9	58,433
854,3	24,233
854,7	7,433
855,2	55,833
855,6	14,033
856	18,633
856,4	31,433
856,9	24,633
857,3	36,233
857,7	9,633
858,2	26,433
858,6	13,033
859	7,233
859,4	44,833
859,9	-3,767
860,3	28,233
860,7	25,433
861,1	13,833
861,6	10,433
862	27,033
862,4	11,233
862,9	26,033
863,3	27,233
863,7	16,233
864,1	45,433
864,6	30,833
865	34,033
865,4	31,433
865,9	26,033
866,3	13,633
866,7	15,033
867,1	15,833
867,6	42,433
868	23,833
868,4	24,433
868,8	-3,967
869,3	-18,967
869,7	12,833
870,1	6,633
870,6	7,233
871	21,033
871,4	11,833
871,8	20,033
872,3	-2,967
872,7	-4,967
873,1	31,433
873,5	4,633
874	39,633
874,4	-10,367
874,8	10,633
875,3	-25,367
875,7	6,833
876,1	24,833
876,5	18,033
877	62,033
877,4	14,633
877,8	4,033
878,2	22,633
878,7	32,433
879,1	21,833
879,5	3,833
879,9	17,833
880,4	7,833
880,8	16,833
881,2	25,233
881,7	35,833
882,1	1,033
882,5	38,633
882,9	32,033
883,4	17,833
883,8	5,833
884,2	13,033
884,6	-14,567
885,1	16,833
885,5	-5,767
885,9	21,233
886,3	3,633
886,8	-8,567
887,2	17,433
887,6	2,233
888	22,033
888,5	21,433
888,9	25,433
889,3	9,433
889,8	16,833
890,2	6,833
890,6	4,633
891	23,033
891,5	-1,567
891,9	27,433
892,3	9,033
892,7	27,233
893,2	14,833
893,6	13,833
894	28,433
894,4	4,433
894,9	8,633
895,3	0,233
895,7	4,833
896,1	7,033
896,6	31,433
897	28,633
897,4	2,633
897,8	9,433
898,3	41,033
898,7	-11,367
899,1	-6,367
899,5	31,233
900	32,833
900,4	-6,767
900,8	7,633
901,2	8,033
901,7	5,633
902,1	9,833
902,5	24,633
902,9	17,233
903,4	29,633
903,8	34,433
904,2	30,233
904,6	37,033
905,1	30,033
905,5	27,833
905,9	13,233
906,3	1,033
906,8	-15,367
907,2	25,833
907,6	-3,367
908	13,833
908,5	15,633
908,9	8,633
909,3	1,033
909,7	41,233
910,2	34,633
910,6	23,633
911	2,033
911,4	37,233
911,9	17,233
912,3	23,233
912,7	42,233
913,1	-20,367
913,6	0,233
914	38,833
914,4	43,833
914,8	15,233
915,3	29,233
915,7	16,433
916,1	9,033
916,5	-8,167
916,9	18,033
917,4	-9,567
917,8	22,633
918,2	27,433
918,6	29,833
919,1	17,833
919,5	19,833
919,9	-2,167
920,3	12,433
920,8	15,433
921,2	-27,167
921,6	-32,367
922	-20,167
922,5	8,433
922,9	-28,567
923,3	2,233
923,7	3,033
924,2	0,833
924,6	0,633
925	-2,167
925,4	4,233
925,8	15,433
926,3	1,633
926,7	6,633
927,1	15,833
927,5	9,233
928	-0,567
928,4	29,033
928,8	6,233
929,2	6,233
929,7	16,833
930,1	-9,167
930,5	25,033
930,9	3,633
931,3	4,033
931,8	19,033
932,2	4,833
932,6	21,033
933	8,433
933,5	15,433
933,9	6,633
934,3	5,233
934,7	7,233
935,2	3,033
935,6	2,033
936	-3,367
936,4	14,633
936,8	-5,367
937,3	-23,567
937,7	-8,567
938,1	13,033
938,5	24,833
939	10,033
939,4	-3,967
939,8	-15,567
940,2	31,433
940,6	18,833
941,1	22,433
941,5	16,033
941,9	-4,567
942,3	6,833
942,8	29,633
943,2	-18,767
943,6	-0,967
944	8,433
944,4	-3,567
944,9	20,233
945,3	6,833
945,7	-9,567
946,1	-20,767
946,6	5,433
947	3,633
947,4	25,233
947,8	-7,767
948,2	7,833
948,7	-2,167
949,1	13,833
949,5	-11,567
949,9	28,833
950,3	27,033
950,8	15,633
951,2	0,233
951,6	4,233
952	-4,367
952,5	11,633
952,9	-5,567
953,3	0,633
953,7	9,633
954,1	13,433
954,6	12,433
955	5,233
955,4	-7,967
955,8	14,033
956,2	29,833
956,7	23,033
957,1	-15,767
957,5	21,633
957,9	-10,567
958,3	9,833
958,8	-5,167
959,2	23,233
959,6	21,833
960	-2,167
960,5	-20,567
960,9	7,433
961,3	-0,167
961,7	16,833
962,1	20,833
962,6	-8,367
963	-1,767
963,4	36,233
963,8	3,633
964,2	22,633
964,7	-5,167
965,1	-14,567
965,5	9,433
965,9	-17,767
966,3	-27,967
966,8	-17,567
967,2	-12,567
967,6	-11,567
968	5,233
968,4	-5,367
968,9	8,433
969,3	9,833
969,7	-11,167
970,1	14,833
970,5	-7,367
971	9,633
971,4	15,233
971,8	-28,167
972,2	-6,167
972,6	10,833
973,1	-21,367
973,5	14,233
973,9	18,433
974,3	-4,967
974,7	3,033
975,2	-1,767
975,6	6,833
976	8,433
976,4	7,633
976,8	14,233
977,3	9,833
977,7	-18,967
978,1	-3,967
978,5	39,233
978,9	18,833
979,4	13,233
979,8	-4,567
980,2	41,033
980,6	-9,967
981	3,233
981,5	-14,167
981,9	7,833
982,3	46,633
982,7	35,233
983,1	34,433
983,6	4,033
984	-3,967
984,4	12,633
984,8	2,433
985,2	-3,167
985,6	5,033
986,1	-34,767
986,5	-3,967
986,9	-6,167
987,3	25,633
987,7	-2,767
988,2	31,633
988,6	7,233
989	-15,967
989,4	-26,767
989,8	28,433
990,3	-1,367
990,7	37,833
991,1	0,833
991,5	-17,367
991,9	30,633
992,3	26,633
992,8	-27,567
993,2	12,233
993,6	-27,167
994	5,433
994,4	-3,567
994,9	-16,367
995,3	-14,767
995,7	14,033
996,1	-1,567
996,5	-13,767
996,9	10,233
997,4	-30,967
997,8	3,433
998,2	-18,367
998,6	6,233
999	-1,567
999,5	-1,967
999,9	-2,567
1000,3	1,633
1000,7	22,633
1001,1	21,033
1001,5	-1,967
1002	30,433
1002,4	24,633
1002,8	25,833
1003,2	12,633
1003,6	3,633
1004	-19,567
1004,5	9,633
1004,9	11,633
1005,3	-9,367
1005,7	-13,567
1006,1	13,833
1006,6	-6,767
1007	4,233
1007,4	49,033
1007,8	0,033
1008,2	28,233
1008,6	10,633
1009,1	4,233
1009,5	-24,767
1009,9	14,833
1010,3	-7,167
1010,7	19,633
1011,1	0,433
1011,6	0,033
1012	-11,167
1012,4	-17,367
1012,8	-9,367
1013,2	9,233
1013,6	16,033
1014,1	9,833
1014,5	3,633
1014,9	17,633
1015,3	1,633
1015,7	-0,567
1016,1	-7,567
1016,6	3,633
1017	26,433
1017,4	9,633
1017,8	2,433
1018,2	20,433
1018,6	-6,167
1019,1	2,833
1019,5	12,633
1019,9	-7,367
1020,3	24,233
1020,7	14,233
1021,1	21,633
1021,6	2,033
1022	-20,767
1022,4	13,633
1022,8	-13,767
1023,2	8,233
1023,6	-6,967
1024,1	14,633
1024,5	-15,367
1024,9	11,633
1025,3	18,833
1025,7	16,633
1026,1	31,833
1026,6	-10,967
1027	4,433
1027,4	23,233
1027,8	-10,967
1028,2	-0,367
1028,6	36,833
1029	-13,567
1029,5	-5,767
1029,9	16,033
1030,3	-0,367
1030,7	24,233
1031,1	-12,367
1031,5	-5,767
1032	16,833
1032,4	12,233
1032,8	-13,967
1033,2	2,033
1033,6	17,833
1034	-11,967
1034,4	10,633
1034,9	0,833
1035,3	16,233
1035,7	-3,967
1036,1	-23,367
1036,5	-10,767
1036,9	-15,967
1037,4	-1,567
1037,8	-3,167
1038,2	26,233
1038,6	-11,967
1039	-18,167
1039,4	20,633
1039,8	-23,767
1040,3	17,033
1040,7	7,833
1041,1	5,033
1041,5	15,633
1041,9	30,833
1042,3	34,633
1042,7	18,233
1043,2	3,033
1043,6	11,233
1044	-26,767
1044,4	-5,367
1044,8	13,633
1045,2	2,833
1045,6	-3,167
1046,1	10,233
1046,5	-16,567
1046,9	-0,967
1047,3	2,433
1047,7	14,433
1048,1	6,033
1048,5	-10,567
1049	0,633
1049,4	-4,767
1049,8	24,833
1050,2	-18,967
1050,6	10,233
1051	20,033
1051,4	-11,967
1051,9	-8,167
1052,3	3,433
1052,7	-5,367
1053,1	13,433
1053,5	21,433
1053,9	-8,367
1054,3	-8,367
1054,8	22,233
1055,2	27,633
1055,6	26,033
1056	-27,367
1056,4	-32,767
1056,8	7,233
1057,2	-4,767
1057,6	-17,967
1058,1	2,833
1058,5	17,033
1058,9	4,433
1059,3	-8,967
1059,7	-31,767
1060,1	-17,367
1060,5	14,033
1061	14,033
1061,4	11,633
1061,8	46,633
1062,2	-16,367
1062,6	-4,367
1063	-5,567
1063,4	23,833
1063,8	8,633
1064,3	10,433
1064,7	-17,167
1065,1	-5,167
1065,5	36,033
1065,9	4,033
1066,3	28,633
1066,7	-10,367
1067,1	-4,767
1067,6	11,233
1068	-31,767
1068,4	-15,767
1068,8	-10,967
1069,2	26,233
1069,6	4,633
1070	33,233
1070,4	-12,767
1070,9	-15,767
1071,3	6,433
1071,7	-13,367
1072,1	32,233
1072,5	-14,567
1072,9	9,633
1073,3	2,433
1073,7	-1,967
1074,2	17,033
1074,6	11,233
1075	15,033
1075,4	-5,367
1075,8	49,433
1076,2	28,033
1076,6	24,833
1077	6,233
1077,5	-5,567
1077,9	4,033
1078,3	10,233
1078,7	3,233
1079,1	24,633
1079,5	3,433
1079,9	24,833
1080,3	-7,167
1080,7	-1,967
1081,2	20,233
1081,6	-29,567
1082	0,233
1082,4	1,833
1082,8	8,033
1083,2	-12,567
1083,6	25,233
1084	-1,367
1084,5	-23,567
1084,9	17,833
1085,3	4,433
1085,7	-4,167
1086,1	-4,967
1086,5	-0,167
1086,9	19,233
1087,3	0,433
1087,7	11,833
1088,2	-15,767
1088,6	-9,767
1089	2,433
1089,4	-16,967
1089,8	-30,767
1090,2	3,033
1090,6	23,433
1091	15,033
1091,4	43,633
1091,9	3,633
1092,3	20,833
1092,7	-27,167
1093,1	9,633
1093,5	10,433
1093,9	0,433
1094,3	4,833
1094,7	16,433
1095,1	-2,767
1095,5	-15,367
1096	20,833
1096,4	5,033
1096,8	0,633
1097,2	21,033
1097,6	-13,367
1098	-1,767
1098,4	-18,367
1098,8	-25,167
1099,2	-20,967
1099,6	14,033
1100,1	22,833
1100,5	16,633
1100,9	0,233
1101,3	13,233
1101,7	7,433
1102,1	-1,367
1102,5	-5,167
1102,9	4,033
1103,3	5,033
1103,7	1,633
1104,2	24,433
1104,6	-3,367
1105	-3,167
1105,4	15,633
1105,8	17,033
1106,2	6,633
1106,6	-11,967
1107	2,233
1107,4	-0,367
1107,8	-4,167
1108,3	1,633
