Data from Subt2_00031.txt Node
Date: Wed Aug 02 19:35:55 MSK 2023
User: vat
Spectrometer: MAYP114033
Trigger mode: 0
Integration Time (sec): 7,000000E-1
Scans to average: 5
Electric dark correction enabled: true
Nonlinearity correction enabled: false
Boxcar width: 0
XAxis mode: Wavelengths
Number of Pixels in Spectrum: 2068
>>>>>Begin Spectral Data<<<<<
199,4	-0,733
199,9	-2,133
200,4	0,267
200,8	0,067
201,3	4,067
201,8	6,267
202,2	-15,533
202,7	14,467
203,2	6,867
203,6	11,067
204,1	25,267
204,6	19,867
205	24,867
205,5	9,267
206	3,267
206,4	1,467
206,9	-4,133
207,4	-0,333
207,8	-1,133
208,3	6,067
208,8	8,067
209,2	-8,333
209,7	14,267
210,2	20,067
210,6	-5,333
211,1	-3,133
211,5	-3,933
212	-15,933
212,5	17,067
212,9	-1,933
213,4	13,067
213,9	14,867
214,3	32,867
214,8	18,667
215,3	-2,733
215,7	1,467
216,2	8,867
216,7	11,267
217,1	-20,733
217,6	5,867
218,1	29,667
218,5	0,667
219	-16,733
219,5	-0,933
219,9	4,667
220,4	16,467
220,9	-18,533
221,3	9,467
221,8	1,667
222,3	-16,933
222,7	41,467
223,2	13,467
223,6	-1,133
224,1	5,467
224,6	31,667
225	-3,933
225,5	3,467
226	16,667
226,4	-32,533
226,9	-13,733
227,4	4,267
227,8	-6,933
228,3	33,267
228,8	11,067
229,2	22,667
229,7	20,267
230,2	8,267
230,6	4,667
231,1	-11,733
231,5	-21,533
232	1,467
232,5	23,267
232,9	7,267
233,4	3,067
233,9	7,067
234,3	-8,733
234,8	5,067
235,3	29,667
235,7	-2,133
236,2	-15,733
236,7	23,667
237,1	25,667
237,6	13,667
238,1	37,467
238,5	28,067
239	-21,733
239,4	-5,933
239,9	-9,933
240,4	-24,733
240,8	-7,933
241,3	20,867
241,8	-2,133
242,2	5,067
242,7	27,467
243,2	11,667
243,6	-18,533
244,1	-15,733
244,6	9,267
245	-17,533
245,5	-9,733
245,9	5,667
246,4	25,067
246,9	22,867
247,3	7,067
247,8	9,867
248,3	2,267
248,7	-11,333
249,2	22,267
249,7	8,867
250,1	14,267
250,6	2,267
251	-16,933
251,5	20,467
252	-1,533
252,4	-14,933
252,9	-7,333
253,4	2,067
253,8	-5,933
254,3	21,467
254,8	6,867
255,2	-4,333
255,7	22,667
256,1	3,067
256,6	13,467
257,1	2,667
257,5	-26,733
258	23,267
258,5	2,067
258,9	11,467
259,4	-4,733
259,9	23,067
260,3	-4,733
260,8	-15,133
261,2	-4,133
261,7	-4,733
262,2	1,667
262,6	-10,133
263,1	15,667
263,6	-29,133
264	15,467
264,5	14,867
264,9	10,667
265,4	15,267
265,9	-5,133
266,3	5,067
266,8	-25,933
267,3	7,067
267,7	7,267
268,2	5,467
268,7	9,067
269,1	9,467
269,6	14,267
270	-9,133
270,5	25,267
271	17,667
271,4	-2,533
271,9	6,067
272,4	-29,733
272,8	-0,733
273,3	12,467
273,7	17,267
274,2	24,867
274,7	-14,533
275,1	7,467
275,6	-47,333
276,1	17,067
276,5	10,667
277	-23,133
277,4	26,467
277,9	9,867
278,4	-7,733
278,8	10,867
279,3	-0,333
279,8	22,867
280,2	24,067
280,7	18,867
281,1	4,667
281,6	-30,333
282,1	-9,133
282,5	28,667
283	-26,533
283,4	-5,133
283,9	27,667
284,4	-5,533
284,8	-3,333
285,3	-3,333
285,8	0,867
286,2	-1,933
286,7	1,867
287,1	-9,933
287,6	15,667
288,1	30,467
288,5	-22,133
289	-29,333
289,5	-6,933
289,9	-9,133
290,4	33,467
290,8	-1,333
291,3	6,467
291,8	17,267
292,2	-26,133
292,7	10,867
293,1	-1,933
293,6	-13,733
294,1	-0,533
294,5	8,867
295	-9,133
295,5	22,067
295,9	-2,533
296,4	14,467
296,8	-18,533
297,3	-4,333
297,8	-26,733
298,2	30,267
298,7	-11,533
299,1	8,467
299,6	-11,933
300,1	15,467
300,5	-7,733
301	5,467
301,5	19,867
301,9	11,667
302,4	-56,933
302,8	-25,933
303,3	-11,933
303,8	21,667
304,2	20,667
304,7	6,867
305,1	-3,333
305,6	19,667
306,1	9,867
306,5	28,267
307	8,667
307,4	13,467
307,9	-18,533
308,4	-3,333
308,8	-7,733
309,3	-3,333
309,8	38,067
310,2	-8,733
310,7	5,867
311,1	20,067
311,6	17,867
312,1	19,467
312,5	17,467
313	0,067
313,4	-14,333
313,9	-30,933
314,4	-5,733
314,8	19,667
315,3	-2,133
315,7	7,467
316,2	22,667
316,7	7,467
317,1	-10,933
317,6	6,067
318	14,867
318,5	-14,333
319	30,467
319,4	-5,933
319,9	6,867
320,3	4,867
320,8	28,467
321,3	-3,933
321,7	7,267
322,2	-5,533
322,6	-16,133
323,1	18,667
323,6	1,467
324	-9,333
324,5	6,267
324,9	8,467
325,4	9,467
325,9	13,067
326,3	-15,133
326,8	32,267
327,2	-4,333
327,7	4,067
328,2	32,667
328,6	22,467
329,1	-5,933
329,5	7,467
330	4,667
330,5	0,067
330,9	27,867
331,4	-9,333
331,8	-0,333
332,3	-6,933
332,8	6,267
333,2	-25,933
333,7	12,067
334,1	8,667
334,6	-6,533
335,1	19,067
335,5	17,267
336	16,467
336,4	37,667
336,9	-12,533
337,4	-2,733
337,8	10,067
338,3	2,267
338,7	6,067
339,2	-19,933
339,7	22,267
340,1	-10,933
340,6	16,467
341	29,867
341,5	-8,333
342	11,667
342,4	41,867
342,9	31,867
343,3	48,467
343,8	30,667
344,2	13,867
344,7	39,067
345,2	40,667
345,6	18,267
346,1	0,667
346,5	48,067
347	9,667
347,5	33,467
347,9	22,667
348,4	11,267
348,8	21,867
349,3	35,467
349,8	19,067
350,2	40,867
350,7	56,067
351,1	44,867
351,6	38,667
352	84,267
352,5	78,067
353	115,667
353,4	163,867
353,9	194,867
354,3	193,067
354,8	256,267
355,3	308,267
355,7	371,867
356,2	445,067
356,6	538,067
357,1	641,867
357,5	804,667
358	912,467
358,5	1036,667
358,9	1219,267
359,4	1442,067
359,8	1673,467
360,3	1879,667
360,8	2185,867
361,2	2475,267
361,7	2842,867
362,1	3177,067
362,6	3640,667
363	4095,667
363,5	4580,067
364	5116,267
364,4	5641,267
364,9	6135,467
365,3	6662,267
365,8	7116,467
366,3	7601,667
366,7	8057,267
367,2	8363,867
367,6	8637,667
368,1	8887,867
368,5	9023,467
369	9073,267
369,5	9059,867
369,9	8945,467
370,4	8826,667
370,8	8571,667
371,3	8312,267
371,7	7989,067
372,2	7600,867
372,7	7214,067
373,1	6807,667
373,6	6342,067
374	5950,067
374,5	5538,067
374,9	5127,267
375,4	4772,867
375,9	4340,667
376,3	4066,667
376,8	3667,067
377,2	3416,667
377,7	3059,667
378,2	2851,267
378,6	2558,067
379,1	2350,667
379,5	2136,867
380	1944,067
380,4	1776,667
380,9	1641,867
381,4	1491,067
381,8	1409,667
382,3	1264,667
382,7	1147,467
383,2	1100,867
383,6	1010,067
384,1	899,667
384,6	866,267
385	776,467
385,5	736,467
385,9	700,067
386,4	642,067
386,8	597,667
387,3	513,867
387,7	515,867
388,2	467,067
388,7	442,667
389,1	409,267
389,6	368,067
390	356,867
390,5	339,667
390,9	288,867
391,4	278,667
391,9	250,867
392,3	275,267
392,8	196,067
393,2	210,667
393,7	178,067
394,1	195,867
394,6	154,467
395,1	144,067
395,5	162,267
396	123,667
396,4	132,267
396,9	86,867
397,3	112,267
397,8	113,267
398,2	129,067
398,7	103,667
399,2	89,467
399,6	63,467
400,1	70,667
400,5	90,867
401	52,467
401,4	64,867
401,9	69,267
402,4	92,467
402,8	88,867
403,3	60,867
403,7	75,467
404,2	45,467
404,6	76,467
405,1	56,467
405,5	71,267
406	73,467
406,5	60,667
406,9	106,067
407,4	93,067
407,8	68,267
408,3	34,067
408,7	75,067
409,2	80,867
409,6	75,667
410,1	78,467
410,6	88,667
411	89,867
411,5	70,867
411,9	71,067
412,4	102,467
412,8	98,467
413,3	98,067
413,7	128,867
414,2	87,067
414,7	78,267
415,1	118,467
415,6	83,667
416	101,267
416,5	116,867
416,9	145,667
417,4	89,467
417,8	123,467
418,3	93,867
418,8	118,867
419,2	108,067
419,7	101,667
420,1	112,867
420,6	113,667
421	107,667
421,5	158,267
421,9	115,467
422,4	111,467
422,8	94,667
423,3	137,667
423,8	132,667
424,2	137,067
424,7	155,667
425,1	132,667
425,6	135,667
426	186,067
426,5	193,867
426,9	155,067
427,4	165,467
427,9	162,467
428,3	174,867
428,8	186,267
429,2	156,467
429,7	174,267
430,1	199,867
430,6	244,867
431	216,267
431,5	189,667
431,9	250,267
432,4	234,667
432,8	253,867
433,3	251,867
433,8	269,867
434,2	255,067
434,7	291,867
435,1	310,067
435,6	329,467
436	336,867
436,5	306,067
436,9	335,067
437,4	392,667
437,8	364,267
438,3	409,267
438,8	396,267
439,2	416,267
439,7	424,467
440,1	486,867
440,6	457,667
441	470,467
441,5	528,867
441,9	529,267
442,4	542,067
442,8	570,867
443,3	569,867
443,7	617,067
444,2	625,667
444,7	639,067
445,1	660,067
445,6	690,467
446	760,067
446,5	774,267
446,9	773,667
447,4	829,267
447,8	864,467
448,3	860,667
448,7	937,667
449,2	944,467
449,6	952,067
450,1	966,667
450,6	1026,667
451	1071,867
451,5	1124,467
451,9	1125,867
452,4	1218,067
452,8	1244,067
453,3	1277,067
453,7	1276,067
454,2	1379,067
454,6	1412,467
455,1	1437,267
455,5	1507,667
456	1539,667
456,4	1576,667
456,9	1571,867
457,3	1660,267
457,8	1703,467
458,3	1760,867
458,7	1826,467
459,2	1871,067
459,6	1950,067
460,1	1978,867
460,5	1994,067
461	2079,667
461,4	2121,067
461,9	2250,067
462,3	2267,667
462,8	2305,267
463,2	2350,867
463,7	2427,067
464,1	2443,667
464,6	2536,667
465	2566,867
465,5	2642,667
466	2682,467
466,4	2782,067
466,9	2806,467
467,3	2874,867
467,8	2904,067
468,2	3018,667
468,7	3060,467
469,1	3106,667
469,6	3143,867
470	3247,067
470,5	3297,867
470,9	3307,067
471,4	3376,467
471,8	3425,667
472,3	3475,667
472,7	3500,867
473,2	3515,867
473,6	3660,667
474,1	3669,467
474,5	3717,267
475	3745,267
475,4	3788,667
475,9	3868,467
476,4	3907,667
476,8	3961,267
477,3	3954,267
477,7	3984,667
478,2	4042,867
478,6	4098,467
479,1	4132,267
479,5	4154,067
480	4175,067
480,4	4183,467
480,9	4289,067
481,3	4267,267
481,8	4321,867
482,2	4327,267
482,7	4346,867
483,1	4360,067
483,6	4377,867
484	4428,667
484,5	4405,067
484,9	4436,067
485,4	4443,467
485,8	4467,467
486,3	4471,067
486,7	4501,267
487,2	4476,867
487,6	4498,867
488,1	4458,067
488,5	4502,267
489	4557,067
489,4	4460,867
489,9	4488,667
490,4	4496,467
490,8	4474,067
491,3	4457,667
491,7	4460,267
492,2	4468,267
492,6	4448,667
493,1	4396,867
493,5	4414,867
494	4384,467
494,4	4328,267
494,9	4370,867
495,3	4319,867
495,8	4329,667
496,2	4306,467
496,7	4258,867
497,1	4274,067
497,6	4241,467
498	4196,267
498,5	4225,467
498,9	4139,267
499,4	4104,867
499,8	4066,067
500,3	4077,467
500,7	4093,067
501,2	4022,867
501,6	3990,067
502,1	4019,267
502,5	3938,667
503	3936,667
503,4	3881,667
503,9	3879,667
504,3	3835,667
504,8	3824,867
505,2	3777,067
505,7	3755,867
506,1	3766,267
506,6	3682,867
507	3650,467
507,5	3613,867
507,9	3584,067
508,4	3527,867
508,8	3502,867
509,3	3485,667
509,7	3479,067
510,2	3450,667
510,6	3381,867
511,1	3345,667
511,5	3354,667
512	3257,667
512,4	3281,667
512,9	3214,667
513,3	3197,667
513,8	3177,067
514,2	3098,867
514,7	3123,067
515,1	3076,267
515,6	3016,667
516	3008,867
516,5	2962,267
516,9	2931,667
517,4	2902,267
517,8	2869,067
518,3	2841,067
518,7	2808,467
519,2	2797,667
519,6	2741,867
520,1	2740,467
520,5	2694,867
521	2682,867
521,4	2602,667
521,9	2626,067
522,3	2557,667
522,8	2515,667
523,2	2473,467
523,7	2515,467
524,1	2451,067
524,6	2432,867
525	2395,467
525,5	2412,867
525,9	2379,667
526,4	2336,067
526,8	2325,667
527,3	2281,867
527,7	2284,667
528,2	2261,267
528,6	2240,667
529,1	2162,267
529,5	2184,667
530	2131,267
530,4	2088,067
530,9	2113,267
531,3	2053,467
531,8	2030,467
532,2	2050,267
532,6	1995,867
533,1	1988,867
533,5	1970,467
534	1955,467
534,4	1921,667
534,9	1922,867
535,3	1898,067
535,8	1890,667
536,2	1836,667
536,7	1814,667
537,1	1792,667
537,6	1783,667
538	1748,467
538,5	1756,267
538,9	1750,867
539,4	1702,667
539,8	1721,067
540,3	1676,867
540,7	1691,067
541,2	1674,667
541,6	1618,267
542,1	1617,467
542,5	1600,267
543	1624,467
543,4	1551,267
543,9	1577,067
544,3	1522,067
544,8	1538,867
545,2	1518,267
545,7	1532,067
546,1	1491,267
546,5	1459,667
547	1462,467
547,4	1439,467
547,9	1449,867
548,3	1433,467
548,8	1390,267
549,2	1399,067
549,7	1372,467
550,1	1379,867
550,6	1364,267
551	1367,067
551,5	1337,867
551,9	1316,267
552,4	1278,067
552,8	1310,667
553,3	1310,667
553,7	1306,467
554,2	1292,067
554,6	1266,067
555,1	1250,867
555,5	1250,467
555,9	1240,267
556,4	1218,467
556,8	1228,267
557,3	1231,667
557,7	1200,867
558,2	1185,467
558,6	1191,267
559,1	1141,267
559,5	1175,467
560	1150,667
560,4	1181,867
560,9	1126,067
561,3	1112,267
561,8	1131,067
562,2	1128,867
562,7	1109,667
563,1	1110,467
563,6	1067,467
564	1085,067
564,4	1059,067
564,9	1070,267
565,3	1067,667
565,8	1036,867
566,2	1061,667
566,7	1054,667
567,1	1019,867
567,6	1032,867
568	1019,267
568,5	1013,867
568,9	1005,867
569,4	1012,467
569,8	987,867
570,3	976,667
570,7	991,667
571,1	956,667
571,6	964,667
572	960,667
572,5	956,267
572,9	925,667
573,4	942,667
573,8	927,267
574,3	933,867
574,7	917,267
575,2	888,467
575,6	921,667
576,1	922,467
576,5	891,467
576,9	868,867
577,4	868,267
577,8	880,067
578,3	870,667
578,7	855,867
579,2	871,867
579,6	851,267
580,1	854,467
580,5	851,467
581	805,467
581,4	847,267
581,9	826,867
582,3	813,067
582,7	827,667
583,2	772,467
583,6	821,667
584,1	808,467
584,5	789,267
585	803,267
585,4	804,867
585,9	813,267
586,3	796,667
586,8	755,067
587,2	748,467
587,6	772,867
588,1	787,867
588,5	749,267
589	746,667
589,4	725,267
589,9	707,467
590,3	732,867
590,8	711,067
591,2	715,467
591,7	732,267
592,1	704,267
592,5	723,267
593	702,267
593,4	742,267
593,9	734,067
594,3	672,067
594,8	705,867
595,2	709,067
595,7	725,667
596,1	682,867
596,6	696,867
597	688,667
597,4	660,467
597,9	657,467
598,3	671,067
598,8	655,867
599,2	644,267
599,7	648,467
600,1	683,867
600,6	638,267
601	629,667
601,4	668,067
601,9	625,867
602,3	642,067
602,8	636,467
603,2	627,667
603,7	614,267
604,1	614,267
604,6	613,667
605	586,667
605,4	621,267
605,9	620,867
606,3	620,467
606,8	572,467
607,2	626,267
607,7	585,467
608,1	610,267
608,6	569,867
609	576,067
609,4	597,267
609,9	569,867
610,3	595,467
610,8	565,867
611,2	576,467
611,7	521,267
612,1	588,467
612,6	564,467
613	553,667
613,4	571,667
613,9	531,067
614,3	545,467
614,8	556,467
615,2	549,867
615,7	523,067
616,1	552,867
616,6	516,267
617	521,467
617,4	502,667
617,9	500,267
618,3	504,267
618,8	481,867
619,2	515,467
619,7	504,467
620,1	495,467
620,5	512,867
621	507,267
621,4	504,267
621,9	490,667
622,3	471,267
622,8	477,267
623,2	496,067
623,6	464,467
624,1	449,267
624,5	475,667
625	461,267
625,4	458,067
625,9	447,267
626,3	492,867
626,8	450,467
627,2	434,467
627,6	472,667
628,1	458,267
628,5	422,267
629	451,067
629,4	426,667
629,9	440,067
630,3	438,667
630,7	423,067
631,2	456,467
631,6	415,867
632,1	406,067
632,5	429,267
633	427,067
633,4	445,267
633,8	384,867
634,3	425,667
634,7	380,867
635,2	384,667
635,6	413,267
636,1	408,267
636,5	379,667
636,9	397,067
637,4	385,667
637,8	372,267
638,3	349,867
638,7	362,867
639,2	351,867
639,6	365,867
640	349,067
640,5	375,067
640,9	359,867
641,4	344,867
641,8	389,467
642,2	294,867
642,7	351,067
643,1	375,867
643,6	358,867
644	328,467
644,5	344,267
644,9	330,467
645,3	371,267
645,8	338,467
646,2	335,667
646,7	310,267
647,1	314,267
647,6	343,467
648	350,467
648,4	343,267
648,9	307,067
649,3	291,867
649,8	301,467
650,2	324,067
650,6	345,867
651,1	337,867
651,5	301,667
652	332,667
652,4	311,267
652,9	306,867
653,3	328,467
653,7	305,867
654,2	336,067
654,6	319,067
655,1	351,467
655,5	328,667
655,9	321,467
656,4	314,067
656,8	281,067
657,3	284,267
657,7	305,067
658,2	244,067
658,6	289,067
659	272,867
659,5	296,467
659,9	271,867
660,4	307,867
660,8	276,067
661,2	275,667
661,7	305,267
662,1	270,667
662,6	285,467
663	270,267
663,4	246,667
663,9	295,867
664,3	311,667
664,8	276,667
665,2	265,267
665,6	246,867
666,1	246,067
666,5	246,467
667	232,867
667,4	251,467
667,9	252,867
668,3	261,067
668,7	267,267
669,2	263,867
669,6	263,067
670,1	243,867
670,5	218,267
670,9	223,067
671,4	255,067
671,8	211,267
672,3	248,667
672,7	242,867
673,1	226,267
673,6	211,667
674	257,467
674,5	236,067
674,9	213,867
675,3	263,267
675,8	233,667
676,2	214,267
676,7	236,867
677,1	210,667
677,5	208,067
678	218,467
678,4	191,867
678,9	217,467
679,3	216,467
679,7	213,467
680,2	201,267
680,6	207,467
681,1	224,667
681,5	204,467
681,9	205,467
682,4	184,267
682,8	221,867
683,3	187,467
683,7	212,267
684,1	189,267
684,6	187,867
685	200,267
685,5	207,067
685,9	190,667
686,3	175,067
686,8	169,067
687,2	175,067
687,7	179,467
688,1	163,867
688,5	204,667
689	181,867
689,4	175,467
689,9	163,467
690,3	173,067
690,7	192,467
691,2	160,467
691,6	169,067
692	200,067
692,5	156,267
692,9	156,867
693,4	171,267
693,8	185,467
694,2	180,267
694,7	148,467
695,1	175,067
695,6	163,067
696	169,467
696,4	174,667
696,9	172,467
697,3	136,667
697,8	168,067
698,2	186,467
698,6	152,067
699,1	153,667
699,5	148,067
699,9	146,467
700,4	157,067
700,8	156,067
701,3	180,867
701,7	137,267
702,1	135,467
702,6	157,267
703	152,867
703,5	134,067
703,9	150,067
704,3	150,667
704,8	155,267
705,2	152,267
705,6	135,067
706,1	132,267
706,5	161,467
707	149,267
707,4	138,067
707,8	135,267
708,3	150,467
708,7	157,667
709,2	118,667
709,6	166,667
710	139,867
710,5	139,067
710,9	150,467
711,3	166,267
711,8	133,067
712,2	150,467
712,7	131,267
713,1	178,467
713,5	116,267
714	133,667
714,4	152,267
714,8	133,267
715,3	120,267
715,7	117,467
716,2	110,667
716,6	115,667
717	126,867
717,5	84,067
717,9	124,867
718,3	122,867
718,8	118,467
719,2	126,067
719,7	86,667
720,1	119,467
720,5	119,867
721	124,667
721,4	126,867
721,8	109,267
722,3	105,467
722,7	134,867
723,2	86,067
723,6	73,867
724	115,867
724,5	106,867
724,9	119,467
725,3	107,267
725,8	130,467
726,2	89,867
726,7	121,467
727,1	107,667
727,5	96,867
728	101,267
728,4	103,667
728,8	75,867
729,3	113,667
729,7	114,867
730,1	76,467
730,6	87,667
731	107,267
731,5	89,267
731,9	126,667
732,3	90,867
732,8	84,467
733,2	113,867
733,6	126,267
734,1	105,667
734,5	132,267
734,9	75,867
735,4	85,267
735,8	97,467
736,3	91,267
736,7	103,667
737,1	127,667
737,6	86,667
738	93,267
738,4	76,067
738,9	109,267
739,3	96,067
739,7	86,067
740,2	110,067
740,6	70,667
741,1	86,467
741,5	94,867
741,9	104,867
742,4	84,067
742,8	53,667
743,2	121,667
743,7	94,867
744,1	116,067
744,5	65,467
745	110,267
745,4	93,867
745,8	114,867
746,3	85,667
746,7	84,067
747,2	59,267
747,6	76,667
748	53,667
748,5	84,267
748,9	79,667
749,3	96,667
749,8	82,067
750,2	88,467
750,6	90,667
751,1	80,267
751,5	86,867
751,9	80,867
752,4	59,867
752,8	42,667
753,3	73,667
753,7	65,867
754,1	98,867
754,6	83,867
755	71,667
755,4	80,267
755,9	111,667
756,3	52,867
756,7	71,867
757,2	76,067
757,6	57,867
758	92,067
758,5	58,067
758,9	67,267
759,3	75,467
759,8	56,667
760,2	74,467
760,6	68,067
761,1	37,267
761,5	100,067
761,9	75,067
762,4	41,667
762,8	57,267
763,3	43,867
763,7	74,267
764,1	57,467
764,6	91,667
765	65,067
765,4	74,067
765,9	54,467
766,3	27,467
766,7	70,067
767,2	68,867
767,6	62,267
768	89,067
768,5	68,667
768,9	49,067
769,3	80,667
769,8	67,867
770,2	55,067
770,6	54,867
771,1	89,267
771,5	47,467
771,9	57,667
772,4	84,267
772,8	88,067
773,2	64,067
773,7	77,667
774,1	42,267
774,5	68,267
775	48,467
775,4	68,667
775,8	77,267
776,3	58,867
776,7	70,067
777,1	51,267
777,6	56,667
778	22,267
778,4	49,867
778,9	70,267
779,3	68,267
779,7	63,067
780,2	50,267
780,6	51,467
781	83,667
781,5	51,667
781,9	68,267
782,3	72,467
782,8	76,467
783,2	46,667
783,6	51,667
784,1	72,067
784,5	36,067
784,9	63,067
785,4	64,667
785,8	60,067
786,2	82,267
786,7	33,867
787,1	66,867
787,5	35,867
788	42,667
788,4	72,867
788,8	19,267
789,3	59,667
789,7	73,867
790,1	85,667
790,6	39,867
791	64,067
791,4	71,667
791,9	54,267
792,3	36,667
792,7	54,267
793,2	49,667
793,6	28,467
794	52,067
794,5	45,667
794,9	14,267
795,3	55,867
795,8	45,467
796,2	43,867
796,6	46,867
797,1	27,067
797,5	52,067
797,9	51,267
798,4	27,867
798,8	33,067
799,2	29,667
799,7	47,267
800,1	13,867
800,5	47,267
801	65,667
801,4	57,267
801,8	41,267
802,2	51,067
802,7	18,267
803,1	31,067
803,5	33,467
804	45,467
804,4	43,867
804,8	50,667
805,3	83,067
805,7	27,067
806,1	42,867
806,6	56,267
807	11,667
807,4	33,667
807,9	48,467
808,3	52,067
808,7	46,867
809,2	41,067
809,6	21,067
810	41,667
810,4	45,067
810,9	43,867
811,3	16,467
811,7	45,867
812,2	9,067
812,6	42,867
813	33,667
813,5	26,067
813,9	40,467
814,3	31,067
814,8	37,267
815,2	45,867
815,6	27,067
816,1	31,267
816,5	25,267
816,9	28,667
817,3	21,467
817,8	51,067
818,2	15,467
818,6	43,067
819,1	38,667
819,5	24,467
819,9	28,067
820,4	21,467
820,8	20,467
821,2	62,867
821,7	19,867
822,1	37,067
822,5	29,267
822,9	37,467
823,4	35,467
823,8	38,667
824,2	20,467
824,7	9,267
825,1	27,067
825,5	5,267
826	27,067
826,4	17,667
826,8	61,667
827,3	42,467
827,7	19,667
828,1	18,067
828,5	33,667
829	14,867
829,4	9,267
829,8	5,067
830,3	12,667
830,7	14,467
831,1	13,267
831,6	16,467
832	23,267
832,4	33,667
832,8	25,067
833,3	32,467
833,7	15,267
834,1	41,467
834,6	8,467
835	34,267
835,4	-9,533
835,8	51,667
836,3	16,667
836,7	32,067
837,1	17,667
837,6	0,667
838	37,667
838,4	32,467
838,9	13,067
839,3	18,267
839,7	22,667
840,1	11,667
840,6	3,467
841	45,067
841,4	10,667
841,9	13,667
842,3	21,867
842,7	13,667
843,1	-3,533
843,6	51,267
844	-22,933
844,4	53,267
844,9	17,467
845,3	36,267
845,7	28,667
846,2	30,467
846,6	38,467
847	23,267
847,4	27,667
847,9	20,467
848,3	-9,533
848,7	47,267
849,2	27,267
849,6	21,867
850	33,267
850,4	30,267
850,9	22,467
851,3	25,067
851,7	17,467
852,2	44,067
852,6	29,467
853	9,267
853,4	6,667
853,9	20,467
854,3	21,467
854,7	-5,733
855,2	36,867
855,6	11,267
856	-7,533
856,4	23,667
856,9	23,667
857,3	13,667
857,7	35,667
858,2	33,267
858,6	3,067
859	17,067
859,4	6,267
859,9	34,067
860,3	-12,733
860,7	33,867
861,1	30,267
861,6	9,867
862	27,067
862,4	-4,133
862,9	-1,133
863,3	31,867
863,7	-1,333
864,1	14,067
864,6	-2,933
865	8,667
865,4	16,467
865,9	15,467
866,3	7,867
866,7	4,467
867,1	20,267
867,6	2,267
868	14,267
868,4	26,867
868,8	-17,733
869,3	24,667
869,7	22,267
870,1	-7,333
870,6	26,867
871	4,267
871,4	43,067
871,8	7,867
872,3	254,467
872,7	-6,533
873,1	-10,533
873,5	19,467
874	27,867
874,4	7,867
874,8	14,867
875,3	33,867
875,7	-5,733
876,1	7,667
876,5	23,267
877	-6,333
877,4	20,267
877,8	45,667
878,2	14,667
878,7	0,667
879,1	-13,933
879,5	-18,733
879,9	17,467
880,4	14,067
880,8	0,867
881,2	26,867
881,7	26,267
882,1	30,667
882,5	-12,733
882,9	8,267
883,4	1,667
883,8	28,867
884,2	22,267
884,6	4,667
885,1	2,867
885,5	-28,333
885,9	29,467
886,3	14,867
886,8	26,267
887,2	7,267
887,6	32,867
888	45,467
888,5	4,667
888,9	-22,333
889,3	21,667
889,8	15,067
890,2	15,267
890,6	-10,133
891	-17,933
891,5	20,867
891,9	-2,333
892,3	24,267
892,7	21,267
893,2	33,067
893,6	30,467
894	5,667
894,4	37,267
894,9	46,867
895,3	29,667
895,7	8,067
896,1	-2,533
896,6	5,067
897	2,067
897,4	33,067
897,8	-0,533
898,3	3,867
898,7	-7,133
899,1	-13,733
899,5	-2,133
900	12,267
900,4	19,267
900,8	9,867
901,2	31,067
901,7	5,067
902,1	-2,533
902,5	-31,133
902,9	34,867
903,4	29,867
903,8	-5,733
904,2	10,267
904,6	24,467
905,1	40,067
905,5	26,867
905,9	21,067
906,3	-8,733
906,8	-4,133
907,2	28,267
907,6	-5,333
908	30,267
908,5	-13,333
908,9	30,267
909,3	22,667
909,7	-7,133
910,2	-11,333
910,6	6,667
911	9,467
911,4	20,867
911,9	1,667
912,3	-2,933
912,7	22,867
913,1	3,867
913,6	18,667
914	-11,533
914,4	-3,933
914,8	-2,133
915,3	-3,333
915,7	13,467
916,1	12,867
916,5	0,667
916,9	21,267
917,4	-0,333
917,8	-4,533
918,2	23,067
918,6	-2,333
919,1	-20,933
919,5	-28,933
919,9	14,467
920,3	-0,733
920,8	8,267
921,2	15,467
921,6	-20,333
922	12,467
922,5	0,667
922,9	44,867
923,3	-10,733
923,7	4,667
924,2	-4,533
924,6	16,667
925	-23,133
925,4	8,467
925,8	-3,133
926,3	30,267
926,7	8,267
927,1	10,667
927,5	27,267
928	-1,333
928,4	2,467
928,8	13,867
929,2	15,067
929,7	4,067
930,1	-1,933
930,5	-0,533
930,9	16,267
931,3	-41,933
931,8	-1,933
932,2	21,267
932,6	6,667
933	13,267
933,5	6,067
933,9	32,667
934,3	2,067
934,7	28,467
935,2	26,267
935,6	-12,533
936	-3,133
936,4	9,667
936,8	-31,933
937,3	3,467
937,7	8,467
938,1	16,467
938,5	-19,133
939	12,467
939,4	-23,933
939,8	-7,933
940,2	-11,333
940,6	12,267
941,1	2,467
941,5	8,667
941,9	-6,533
942,3	-1,133
942,8	10,867
943,2	23,667
943,6	13,067
944	-0,933
944,4	7,067
944,9	24,467
945,3	6,667
945,7	-10,333
946,1	-3,533
946,6	-1,533
947	-5,933
947,4	-3,533
947,8	11,867
948,2	-14,733
948,7	12,667
949,1	17,867
949,5	15,667
949,9	-9,733
950,3	0,267
950,8	0,267
951,2	-8,933
951,6	-11,533
952	4,267
952,5	34,067
952,9	-39,333
953,3	-11,733
953,7	11,267
954,1	4,267
954,6	7,067
955	11,867
955,4	26,867
955,8	-26,533
956,2	-0,533
956,7	6,467
957,1	4,267
957,5	1,067
957,9	2,867
958,3	-15,333
958,8	-12,333
959,2	-12,533
959,6	-0,933
960	-11,333
960,5	17,667
960,9	7,467
961,3	-3,333
961,7	6,667
962,1	-15,133
962,6	0,467
963	11,267
963,4	21,067
963,8	11,267
964,2	-12,733
964,7	-27,533
965,1	-1,533
965,5	3,267
965,9	2,867
966,3	1,667
966,8	20,267
967,2	19,867
967,6	-2,333
968	1,867
968,4	-8,133
968,9	2,867
969,3	17,467
969,7	0,667
970,1	-14,733
970,5	2,267
971	-5,133
971,4	14,067
971,8	2,467
972,2	-2,333
972,6	-5,933
973,1	31,067
973,5	25,467
973,9	1,067
974,3	-10,333
974,7	-7,133
975,2	-5,333
975,6	21,067
976	-9,333
976,4	-2,933
976,8	-4,933
977,3	2,667
977,7	-31,533
978,1	2,667
978,5	12,867
978,9	-5,333
979,4	-15,133
979,8	5,067
980,2	11,267
980,6	27,467
981	-22,133
981,5	6,067
981,9	7,667
982,3	-12,733
982,7	28,867
983,1	-16,933
983,6	-0,133
984	6,467
984,4	11,867
984,8	11,267
985,2	-3,333
985,6	15,867
986,1	-3,333
986,5	-23,733
986,9	5,267
987,3	-0,933
987,7	6,267
988,2	-8,933
988,6	8,067
989	22,467
989,4	-44,333
989,8	-2,333
990,3	-14,333
990,7	-34,933
991,1	-10,133
991,5	-5,133
991,9	15,667
992,3	-28,133
992,8	11,067
993,2	-5,333
993,6	6,267
994	-0,333
994,4	7,667
994,9	9,667
995,3	2,067
995,7	-35,933
996,1	9,867
996,5	-4,533
996,9	25,667
997,4	4,467
997,8	27,467
998,2	-27,133
998,6	4,067
999	0,667
999,5	-14,533
999,9	-17,133
1000,3	-16,133
1000,7	17,867
1001,1	-30,333
1001,5	14,467
1002	-22,533
1002,4	15,467
1002,8	2,667
1003,2	6,067
1003,6	-8,533
1004	-38,533
1004,5	-29,333
1004,9	-9,733
1005,3	12,267
1005,7	-14,533
1006,1	-14,333
1006,6	-26,333
1007	17,867
1007,4	13,467
1007,8	23,867
1008,2	19,667
1008,6	9,067
1009,1	6,067
1009,5	6,467
1009,9	-20,333
1010,3	-57,133
1010,7	2,067
1011,1	9,067
1011,6	25,067
1012	-0,733
1012,4	1,667
1012,8	-8,733
1013,2	14,267
1013,6	-2,933
1014,1	5,067
1014,5	26,067
1014,9	20,067
1015,3	6,267
1015,7	-21,333
1016,1	-9,733
1016,6	13,667
1017	-28,533
1017,4	-1,933
1017,8	-18,533
1018,2	0,667
1018,6	8,267
1019,1	-1,333
1019,5	-9,933
1019,9	17,067
1020,3	35,067
1020,7	21,467
1021,1	13,267
1021,6	-28,133
1022	1,667
1022,4	8,467
1022,8	1,667
1023,2	-12,133
1023,6	-11,933
1024,1	6,867
1024,5	-3,733
1024,9	18,667
1025,3	-16,933
1025,7	8,467
1026,1	6,867
1026,6	1,667
1027	-36,133
1027,4	-24,533
1027,8	48,067
1028,2	-0,733
1028,6	-16,333
1029	-2,933
1029,5	5,067
1029,9	28,867
1030,3	-0,133
1030,7	33,267
1031,1	22,667
1031,5	-16,133
1032	10,067
1032,4	3,867
1032,8	7,267
1033,2	13,667
1033,6	-1,133
1034	-1,733
1034,4	28,867
1034,9	20,867
1035,3	14,067
1035,7	-12,933
1036,1	-8,933
1036,5	-18,333
1036,9	8,067
1037,4	13,867
1037,8	29,067
1038,2	3,267
1038,6	3,867
1039	7,867
1039,4	30,267
1039,8	-7,533
1040,3	9,067
1040,7	2,467
1041,1	-6,333
1041,5	53,667
1041,9	8,267
1042,3	9,867
1042,7	11,867
1043,2	28,067
1043,6	13,667
1044	30,067
1044,4	-11,533
1044,8	14,267
1045,2	-8,333
1045,6	-22,933
1046,1	5,667
1046,5	-7,533
1046,9	36,067
1047,3	28,067
1047,7	23,667
1048,1	11,667
1048,5	1,067
1049	9,867
1049,4	-1,533
1049,8	-17,533
1050,2	-15,733
1050,6	22,067
1051	17,867
1051,4	18,867
1051,9	-12,733
1052,3	4,667
1052,7	1,867
1053,1	-21,333
1053,5	-27,533
1053,9	35,267
1054,3	18,667
1054,8	-3,133
1055,2	7,467
1055,6	4,467
1056	12,067
1056,4	16,667
1056,8	12,467
1057,2	13,667
1057,6	-9,333
1058,1	-24,733
1058,5	9,267
1058,9	9,067
1059,3	18,067
1059,7	4,267
1060,1	21,467
1060,5	7,867
1061	-23,133
1061,4	-3,533
1061,8	38,467
1062,2	3,867
1062,6	52,067
1063	7,467
1063,4	24,667
1063,8	-0,933
1064,3	-14,333
1064,7	-6,333
1065,1	-3,133
1065,5	-16,133
1065,9	-3,733
1066,3	-9,933
1066,7	3,467
1067,1	-15,333
1067,6	41,067
1068	2,867
1068,4	-7,133
1068,8	-25,733
1069,2	-10,333
1069,6	17,867
1070	2,467
1070,4	2,667
1070,9	-12,133
1071,3	-22,533
1071,7	1,467
1072,1	-5,133
1072,5	-22,933
1072,9	-2,933
1073,3	-13,733
1073,7	9,467
1074,2	9,867
1074,6	10,467
1075	0,267
1075,4	19,867
1075,8	0,867
1076,2	-13,133
1076,6	3,467
1077	13,467
1077,5	0,067
1077,9	-0,533
1078,3	-21,733
1078,7	22,667
1079,1	4,467
1079,5	5,667
1079,9	14,467
1080,3	-31,333
1080,7	14,667
1081,2	3,067
1081,6	-4,933
1082	-18,133
1082,4	9,867
1082,8	-2,333
1083,2	-7,333
1083,6	21,067
1084	20,467
1084,5	0,867
1084,9	-6,733
1085,3	-6,533
1085,7	-8,333
1086,1	-10,933
1086,5	-5,733
1086,9	7,267
1087,3	-16,533
1087,7	3,067
1088,2	-1,733
1088,6	21,667
1089	0,867
1089,4	3,067
1089,8	-35,733
1090,2	16,467
1090,6	3,067
1091	-7,933
1091,4	-15,533
1091,9	-29,733
1092,3	-14,133
1092,7	8,867
1093,1	-30,133
1093,5	-13,933
1093,9	-10,733
1094,3	-0,133
1094,7	25,467
1095,1	0,867
1095,5	13,667
1096	-20,133
1096,4	-3,533
1096,8	24,067
1097,2	-27,333
1097,6	25,867
1098	10,067
1098,4	10,067
1098,8	-15,333
1099,2	-3,533
1099,6	-10,533
1100,1	-27,933
1100,5	-20,933
1100,9	8,267
1101,3	-2,133
1101,7	0,467
1102,1	12,467
1102,5	-5,333
1102,9	4,867
1103,3	-18,333
1103,7	-10,533
1104,2	16,867
1104,6	-12,533
1105	9,467
1105,4	6,467
1105,8	-21,333
1106,2	-7,933
1106,6	-3,333
1107	-0,533
1107,4	1,067
1107,8	-1,733
1108,3	0,867
