Data from Subt2_00026.txt Node
Date: Wed Aug 02 19:27:52 MSK 2023
User: vat
Spectrometer: MAYP114033
Trigger mode: 0
Integration Time (sec): 7,000000E-1
Scans to average: 5
Electric dark correction enabled: true
Nonlinearity correction enabled: false
Boxcar width: 0
XAxis mode: Wavelengths
Number of Pixels in Spectrum: 2068
>>>>>Begin Spectral Data<<<<<
199,4	0,1
199,9	-2,3
200,4	1,7
200,8	1,7
201,3	-9,7
201,8	-18,5
202,2	8,9
202,7	27,3
203,2	-4,3
203,6	5,5
204,1	3,3
204,6	3,7
205	-10,7
205,5	-7,5
206	-2,7
206,4	1,7
206,9	-19,1
207,4	20,7
207,8	15,7
208,3	-5,7
208,8	13,1
209,2	18,3
209,7	-18,9
210,2	33,5
210,6	1,5
211,1	11,3
211,5	-17,3
212	-9,5
212,5	-18,7
212,9	-24,1
213,4	-0,3
213,9	-17,7
214,3	4,1
214,8	6,7
215,3	6,7
215,7	15,3
216,2	6,9
216,7	-31,7
217,1	-24,9
217,6	9,7
218,1	-11,3
218,5	22,5
219	-7,7
219,5	-15,7
219,9	19,3
220,4	4,5
220,9	-1,3
221,3	29,3
221,8	35,3
222,3	-1,1
222,7	27,5
223,2	20,1
223,6	-17,9
224,1	-5,5
224,6	2,7
225	-29,5
225,5	7,3
226	-3,1
226,4	26,3
226,9	-15,7
227,4	13,9
227,8	-17,1
228,3	20,7
228,8	-11,3
229,2	2,3
229,7	1,9
230,2	-32,9
230,6	-1,1
231,1	-5,3
231,5	0,7
232	16,3
232,5	6,1
232,9	-13,5
233,4	53,3
233,9	10,7
234,3	16,5
234,8	-8,3
235,3	2,5
235,7	-4,9
236,2	-12,9
236,7	1,3
237,1	-40,1
237,6	-2,3
238,1	13,3
238,5	27,7
239	32,7
239,4	-5,7
239,9	-50,1
240,4	25,1
240,8	11,1
241,3	-15,3
241,8	-20,3
242,2	-9,9
242,7	-2,1
243,2	11,7
243,6	17,3
244,1	-22,7
244,6	-29,1
245	15,9
245,5	-5,3
245,9	-14,5
246,4	-7,3
246,9	-14,7
247,3	-3,5
247,8	13,1
248,3	18,3
248,7	4,3
249,2	-8,3
249,7	-26,3
250,1	-12,1
250,6	7,5
251	-20,7
251,5	9,5
252	-2,3
252,4	17,9
252,9	-11,3
253,4	0,5
253,8	24,5
254,3	7,1
254,8	5,3
255,2	3,3
255,7	15,5
256,1	-10,1
256,6	-22,7
257,1	14,5
257,5	7,7
258	0,1
258,5	21,1
258,9	24,9
259,4	14,7
259,9	32,3
260,3	-23,3
260,8	1,3
261,2	10,3
261,7	10,9
262,2	14,1
262,6	-5,7
263,1	-22,9
263,6	28,1
264	10,7
264,5	8,9
264,9	8,5
265,4	-10,3
265,9	30,7
266,3	-28,5
266,8	32,3
267,3	-23,1
267,7	10,1
268,2	-7,5
268,7	18,1
269,1	-8,7
269,6	10,9
270	1,9
270,5	-3,3
271	-2,3
271,4	5,7
271,9	-5,3
272,4	-22,1
272,8	13,1
273,3	14,7
273,7	2,9
274,2	28,5
274,7	-31,1
275,1	-1,9
275,6	-22,7
276,1	6,3
276,5	-1,5
277	-37,9
277,4	13,3
277,9	-3,9
278,4	2,9
278,8	-1,1
279,3	16,5
279,8	0,3
280,2	12,3
280,7	11,9
281,1	11,3
281,6	1,9
282,1	30,1
282,5	18,5
283	-10,3
283,4	9,7
283,9	20,1
284,4	-26,9
284,8	-3,1
285,3	12,3
285,8	0,3
286,2	4,7
286,7	24,3
287,1	1,3
287,6	13,9
288,1	-15,5
288,5	6,5
289	16,9
289,5	-17,5
289,9	9,5
290,4	6,9
290,8	-9,7
291,3	8,9
291,8	2,9
292,2	-19,9
292,7	17,9
293,1	10,1
293,6	19,5
294,1	23,9
294,5	7,9
295	4,7
295,5	-0,7
295,9	21,9
296,4	-8,7
296,8	-2,1
297,3	15,7
297,8	13,3
298,2	-3,9
298,7	11,3
299,1	3,9
299,6	-24,7
300,1	-6,5
300,5	-7,1
301	-8,3
301,5	2,5
301,9	-32,7
302,4	-9,5
302,8	-11,5
303,3	-13,5
303,8	7,7
304,2	-3,9
304,7	-6,1
305,1	16,5
305,6	-15,1
306,1	-14,9
306,5	-7,1
307	17,9
307,4	5,1
307,9	-22,1
308,4	-16,3
308,8	-6,1
309,3	-19,7
309,8	-7,5
310,2	6,9
310,7	-6,3
311,1	-19,9
311,6	-19,7
312,1	15,3
312,5	5,3
313	34,5
313,4	14,9
313,9	4,5
314,4	-9,7
314,8	-18,9
315,3	-2,7
315,7	16,7
316,2	8,3
316,7	-2,5
317,1	-21,9
317,6	-3,7
318	9,3
318,5	15,9
319	-20,7
319,4	3,5
319,9	-17,9
320,3	-11,7
320,8	-9,7
321,3	-0,5
321,7	19,1
322,2	6,1
322,6	-3,7
323,1	-8,1
323,6	3,3
324	-10,7
324,5	-27,9
324,9	-8,7
325,4	0,7
325,9	-3,5
326,3	20,1
326,8	1,9
327,2	5,3
327,7	23,1
328,2	-15,5
328,6	-1,5
329,1	-2,5
329,5	24,1
330	13,5
330,5	13,1
330,9	-10,3
331,4	31,3
331,8	2,1
332,3	-6,3
332,8	-26,7
333,2	28,5
333,7	12,9
334,1	6,1
334,6	3,5
335,1	-5,7
335,5	-4,3
336	0,3
336,4	2,7
336,9	-33,9
337,4	7,7
337,8	20,1
338,3	4,3
338,7	-15,1
339,2	-7,5
339,7	-5,3
340,1	-27,7
340,6	16,1
341	1,1
341,5	17,1
342	2,7
342,4	11,9
342,9	-6,7
343,3	24,1
343,8	-7,3
344,2	-38,1
344,7	8,9
345,2	25,5
345,6	-29,7
346,1	13,5
346,5	-13,7
347	2,7
347,5	2,9
347,9	23,1
348,4	17,5
348,8	-17,7
349,3	-5,1
349,8	6,7
350,2	0,1
350,7	0,5
351,1	-6,5
351,6	11,9
352	2,5
352,5	1,9
353	8,7
353,4	-17,9
353,9	32,3
354,3	21,1
354,8	45,1
355,3	12,3
355,7	24,1
356,2	24,9
356,6	40,1
357,1	62,3
357,5	58,3
358	75,3
358,5	73,7
358,9	84,5
359,4	79,9
359,8	120,1
360,3	145,1
360,8	136,1
361,2	198,5
361,7	195,1
362,1	249,9
362,6	273,7
363	256,5
363,5	271,1
364	356,7
364,4	389,9
364,9	417,5
365,3	466,9
365,8	471,3
366,3	535,9
366,7	537,3
367,2	572,9
367,6	593,1
368,1	610,7
368,5	650,1
369	646,9
369,5	620,5
369,9	618,1
370,4	616,7
370,8	636,7
371,3	597,9
371,7	566,7
372,2	582,7
372,7	485,1
373,1	494,1
373,6	455,9
374	460,5
374,5	403,1
374,9	378,3
375,4	347,9
375,9	326,9
376,3	305,7
376,8	252,7
377,2	250,9
377,7	238,1
378,2	215,1
378,6	200,9
379,1	179,9
379,5	165,1
380	174,1
380,4	146,5
380,9	113,1
381,4	113,5
381,8	102,1
382,3	137,1
382,7	101,1
383,2	100,5
383,6	87,7
384,1	94,5
384,6	58,9
385	29,3
385,5	37,3
385,9	70,7
386,4	76,1
386,8	70,5
387,3	25,9
387,7	43,9
388,2	37,1
388,7	19,5
389,1	45,7
389,6	37,5
390	32,7
390,5	26,7
390,9	41,7
391,4	33,1
391,9	30,9
392,3	53,1
392,8	6,3
393,2	34,9
393,7	12,1
394,1	21,1
394,6	28,5
395,1	13,7
395,5	16,5
396	4,9
396,4	30,9
396,9	5,9
397,3	28,5
397,8	-8,3
398,2	1,3
398,7	34,3
399,2	31,5
399,6	-8,1
400,1	14,3
400,5	-15,9
401	22,7
401,4	20,7
401,9	17,7
402,4	-18,7
402,8	15,3
403,3	24,5
403,7	35,7
404,2	5,1
404,6	27,9
405,1	-8,1
405,5	-4,1
406	26,9
406,5	7,5
406,9	10,5
407,4	40,3
407,8	-0,3
408,3	26,7
408,7	36,1
409,2	4,9
409,6	1,1
410,1	24,9
410,6	22,7
411	2,5
411,5	33,3
411,9	4,5
412,4	38,5
412,8	13,9
413,3	21,7
413,7	43,7
414,2	28,3
414,7	83,5
415,1	40,3
415,6	65,7
416	32,7
416,5	59,5
416,9	98,7
417,4	35,5
417,8	43,9
418,3	61,5
418,8	54,5
419,2	23,7
419,7	74,5
420,1	77,3
420,6	45,7
421	53,5
421,5	83,3
421,9	110,9
422,4	74,1
422,8	49,1
423,3	63,7
423,8	75,9
424,2	79,9
424,7	79,1
425,1	106,3
425,6	65,7
426	86,5
426,5	89,9
426,9	93,1
427,4	81,5
427,9	124,9
428,3	114,5
428,8	79,5
429,2	92,1
429,7	126,7
430,1	94,9
430,6	116,7
431	107,5
431,5	105,1
431,9	131,1
432,4	68,7
432,8	131,7
433,3	121,7
433,8	121,3
434,2	143,7
434,7	138,1
435,1	139,7
435,6	128,9
436	151,5
436,5	154,5
436,9	185,3
437,4	167,7
437,8	168,7
438,3	178,5
438,8	170,9
439,2	188,5
439,7	172,9
440,1	212,3
440,6	228,1
441	210,3
441,5	265,1
441,9	233,9
442,4	242,5
442,8	251,3
443,3	260,5
443,7	278,7
444,2	268,9
444,7	299,5
445,1	287,1
445,6	320,1
446	345,3
446,5	350,1
446,9	364,7
447,4	374,7
447,8	405,5
448,3	422,5
448,7	401,9
449,2	395,7
449,6	426,7
450,1	467,9
450,6	460,1
451	487,5
451,5	511,7
451,9	506,5
452,4	496,9
452,8	555,7
453,3	534,7
453,7	595,1
454,2	592,3
454,6	580,3
455,1	623,7
455,5	626,7
456	634,7
456,4	657,7
456,9	701,5
457,3	693,9
457,8	728,3
458,3	745,3
458,7	740,1
459,2	778,9
459,6	811,9
460,1	786,9
460,5	803,3
461	834,9
461,4	855,9
461,9	853,7
462,3	905,7
462,8	863,7
463,2	946,9
463,7	947,5
464,1	954,7
464,6	1026,1
465	1002,3
465,5	1014,3
466	1032,7
466,4	1053,9
466,9	1029,1
467,3	1099,7
467,8	1114,5
468,2	1104,7
468,7	1174,3
469,1	1159,7
469,6	1173,5
470	1199,9
470,5	1210,5
470,9	1225,1
471,4	1226,5
471,8	1249,7
472,3	1287,9
472,7	1301,5
473,2	1316,1
473,6	1322,1
474,1	1370,7
474,5	1347,7
475	1330,1
475,4	1429,7
475,9	1396,1
476,4	1389,5
476,8	1437,5
477,3	1422,1
477,7	1469,1
478,2	1477,1
478,6	1510,7
479,1	1474,9
479,5	1494,3
480	1502,5
480,4	1552,5
480,9	1516,1
481,3	1538,3
481,8	1547,7
482,2	1534,9
482,7	1556,7
483,1	1586,3
483,6	1630,1
484	1629,5
484,5	1622,7
484,9	1600,5
485,4	1577,5
485,8	1657,5
486,3	1640,7
486,7	1629,9
487,2	1665,3
487,6	1654,9
488,1	1623,5
488,5	1663,9
489	1615,9
489,4	1645,5
489,9	1684,3
490,4	1698,7
490,8	1636,3
491,3	1663,9
491,7	1682,9
492,2	1665,3
492,6	1673,5
493,1	1654,7
493,5	1667,1
494	1657,1
494,4	1680,3
494,9	1674,5
495,3	1656,3
495,8	1659,5
496,2	1655,5
496,7	1636,7
497,1	1668,5
497,6	1664,5
498	1668,3
498,5	1643,3
498,9	1653,1
499,4	1624,7
499,8	1682,1
500,3	1642,3
500,7	1637,5
501,2	1620,1
501,6	1632,1
502,1	1646,9
502,5	1627,5
503	1657,5
503,4	1595,5
503,9	1612,3
504,3	1553,7
504,8	1613,7
505,2	1614,3
505,7	1589,5
506,1	1569,5
506,6	1583,9
507	1579,5
507,5	1565,9
507,9	1583,7
508,4	1580,5
508,8	1576,9
509,3	1538,3
509,7	1566,5
510,2	1546,3
510,6	1553,7
511,1	1568,3
511,5	1514,5
512	1523,3
512,4	1525,7
512,9	1476,5
513,3	1527,3
513,8	1485,3
514,2	1487,1
514,7	1512,9
515,1	1504,9
515,6	1500,5
516	1514,7
516,5	1478,9
516,9	1475,7
517,4	1431,7
517,8	1481,9
518,3	1435,1
518,7	1469,5
519,2	1478,7
519,6	1417,9
520,1	1394,5
520,5	1422,3
521	1441,3
521,4	1404,7
521,9	1422,7
522,3	1421,9
522,8	1410,7
523,2	1409,5
523,7	1382,3
524,1	1384,3
524,6	1365,3
525	1381,7
525,5	1379,1
525,9	1350,3
526,4	1338,9
526,8	1338,9
527,3	1353,1
527,7	1321,5
528,2	1342,1
528,6	1310,7
529,1	1348,1
529,5	1309,1
530	1350,7
530,4	1338,3
530,9	1298,3
531,3	1323,9
531,8	1311,1
532,2	1280,5
532,6	1283,9
533,1	1304,5
533,5	1303,7
534	1281,5
534,4	1293,1
534,9	1283,1
535,3	1285,7
535,8	1266,1
536,2	1271,5
536,7	1273,1
537,1	1279,1
537,6	1261,5
538	1245,9
538,5	1235,9
538,9	1267,7
539,4	1264,3
539,8	1269,7
540,3	1228,5
540,7	1216,3
541,2	1249,1
541,6	1244,5
542,1	1251,1
542,5	1256,3
543	1244,7
543,4	1255,5
543,9	1254,5
544,3	1260,9
544,8	1206,7
545,2	1254,9
545,7	1235,5
546,1	1222,9
546,5	1215,7
547	1215,7
547,4	1243,9
547,9	1206,7
548,3	1221,3
548,8	1183,5
549,2	1194,7
549,7	1190,1
550,1	1180,7
550,6	1213,3
551	1212,3
551,5	1201,3
551,9	1202,3
552,4	1144,9
552,8	1181,1
553,3	1162,5
553,7	1157,3
554,2	1181,1
554,6	1169,5
555,1	1152,9
555,5	1194,5
555,9	1186,9
556,4	1175,9
556,8	1147,7
557,3	1177,7
557,7	1188,3
558,2	1174,3
558,6	1166,1
559,1	1190,7
559,5	1164,9
560	1177,9
560,4	1164,7
560,9	1132,7
561,3	1159,5
561,8	1137,1
562,2	1139,1
562,7	1184,7
563,1	1183,7
563,6	1141,1
564	1165,7
564,4	1148,3
564,9	1127,5
565,3	1107,7
565,8	1146,7
566,2	1126,9
566,7	1147,3
567,1	1122,5
567,6	1161,3
568	1120,5
568,5	1130,3
568,9	1102,3
569,4	1086,9
569,8	1136,3
570,3	1113,3
570,7	1132,9
571,1	1113,1
571,6	1148,5
572	1066,5
572,5	1121,5
572,9	1114,5
573,4	1127,1
573,8	1087,1
574,3	1120,9
574,7	1102,7
575,2	1091,9
575,6	1116,1
576,1	1088,5
576,5	1098,9
576,9	1107,3
577,4	1081,7
577,8	1078,3
578,3	1089,9
578,7	1057,3
579,2	1067,7
579,6	1080,3
580,1	1067,1
580,5	1046,3
581	1029,5
581,4	1052,5
581,9	1069,7
582,3	1006,7
582,7	1056,9
583,2	1043,1
583,6	1033,5
584,1	1041,1
584,5	1037,7
585	1020,7
585,4	1050,5
585,9	1027,5
586,3	1037,1
586,8	1031,7
587,2	991,3
587,6	1024,5
588,1	987,1
588,5	1007,7
589	998,9
589,4	967,1
589,9	998,3
590,3	997,3
590,8	960,9
591,2	975,7
591,7	981,3
592,1	969,7
592,5	963,9
593	956,5
593,4	986,3
593,9	972,5
594,3	967,1
594,8	956,5
595,2	979,3
595,7	937,9
596,1	941,3
596,6	947,1
597	911,7
597,4	947,5
597,9	964,5
598,3	932,9
598,8	942,3
599,2	932,5
599,7	888,1
600,1	904,9
600,6	899,1
601	950,1
601,4	908,9
601,9	917,1
602,3	882,1
602,8	859,9
603,2	920,5
603,7	914,9
604,1	893,3
604,6	879,9
605	861,9
605,4	893,1
605,9	862,3
606,3	877,3
606,8	860,3
607,2	866,9
607,7	846,1
608,1	876,9
608,6	858,3
609	845,9
609,4	887,1
609,9	838,1
610,3	832,1
610,8	864,5
611,2	816,3
611,7	808,5
612,1	832,9
612,6	807,9
613	811,3
613,4	791,9
613,9	780,1
614,3	770,7
614,8	773,9
615,2	833,3
615,7	782,9
616,1	794,5
616,6	781,3
617	775,7
617,4	759,3
617,9	767,1
618,3	777,9
618,8	750,9
619,2	765,5
619,7	782,7
620,1	745,3
620,5	728,1
621	746,9
621,4	764,9
621,9	736,9
622,3	741,7
622,8	728,7
623,2	741,9
623,6	743,3
624,1	704,7
624,5	698,3
625	707,3
625,4	696,1
625,9	708,3
626,3	700,5
626,8	700,9
627,2	665,7
627,6	691,3
628,1	689,9
628,5	691,5
629	680,1
629,4	678,1
629,9	684,9
630,3	619,1
630,7	668,9
631,2	668,7
631,6	662,1
632,1	620,1
632,5	610,9
633	626,5
633,4	624,9
633,8	623,9
634,3	639,9
634,7	641,7
635,2	610,5
635,6	627,9
636,1	583,9
636,5	610,9
636,9	601,1
637,4	587,9
637,8	581,3
638,3	575,7
638,7	576,1
639,2	574,9
639,6	564,3
640	559,9
640,5	552,3
640,9	575,7
641,4	560,9
641,8	557,7
642,2	548,3
642,7	534,9
643,1	542,7
643,6	561,1
644	524,3
644,5	556,3
644,9	527,7
645,3	533,9
645,8	532,5
646,2	532,9
646,7	530,7
647,1	526,1
647,6	497,5
648	514,3
648,4	535,7
648,9	525,1
649,3	529,7
649,8	498,9
650,2	479,1
650,6	481,3
651,1	493,3
651,5	500,5
652	497,1
652,4	444,3
652,9	505,1
653,3	471,3
653,7	466,5
654,2	463,1
654,6	489,5
655,1	444,3
655,5	453,1
655,9	457,9
656,4	445,9
656,8	469,3
657,3	455,3
657,7	444,7
658,2	460,7
658,6	432,1
659	455,7
659,5	429,1
659,9	415,3
660,4	421,9
660,8	425,3
661,2	420,7
661,7	409,9
662,1	395,1
662,6	401,9
663	414,9
663,4	426,3
663,9	366,7
664,3	401,9
664,8	392,9
665,2	398,3
665,6	419,1
666,1	388,9
666,5	397,1
667	381,9
667,4	382,5
667,9	381,9
668,3	383,9
668,7	389,3
669,2	367,5
669,6	386,1
670,1	329,1
670,5	365,3
670,9	374,3
671,4	341,1
671,8	374,3
672,3	385,9
672,7	372,7
673,1	340,5
673,6	311,5
674	356,9
674,5	367,7
674,9	313,3
675,3	343,5
675,8	349,1
676,2	307,7
676,7	329,1
677,1	344,7
677,5	317,5
678	356,1
678,4	336,7
678,9	333,3
679,3	283,7
679,7	309,3
680,2	281,9
680,6	313,5
681,1	317,7
681,5	314,1
681,9	295,7
682,4	285,7
682,8	291,9
683,3	293,7
683,7	284,9
684,1	275,3
684,6	303,5
685	290,3
685,5	264,3
685,9	267,3
686,3	286,5
686,8	273,7
687,2	258,7
687,7	280,9
688,1	266,3
688,5	275,1
689	245,1
689,4	244,7
689,9	278,5
690,3	263,1
690,7	263,9
691,2	233,7
691,6	282,7
692	280,9
692,5	257,3
692,9	269,5
693,4	247,3
693,8	231,5
694,2	238,3
694,7	221,9
695,1	242,5
695,6	201,7
696	236,7
696,4	225,1
696,9	222,1
697,3	254,9
697,8	230,7
698,2	209,1
698,6	250,7
699,1	205,3
699,5	215,7
699,9	215,1
700,4	219,7
700,8	204,3
701,3	213,3
701,7	229,3
702,1	229,5
702,6	211,1
703	204,7
703,5	188,3
703,9	198,1
704,3	218,5
704,8	159,7
705,2	164,7
705,6	228,7
706,1	179,1
706,5	211,3
707	203,1
707,4	174,3
707,8	192,3
708,3	188,9
708,7	191,5
709,2	194,5
709,6	197,5
710	163,7
710,5	167,9
710,9	195,1
711,3	178,7
711,8	159,3
712,2	166,1
712,7	185,7
713,1	169,7
713,5	169,1
714	159,3
714,4	154,5
714,8	167,9
715,3	171,1
715,7	175,1
716,2	183,5
716,6	185,3
717	139,3
717,5	169,9
717,9	147,3
718,3	154,1
718,8	152,3
719,2	177,9
719,7	170,1
720,1	150,3
720,5	129,1
721	163,9
721,4	152,5
721,8	163,1
722,3	151,1
722,7	170,3
723,2	151,3
723,6	145,7
724	165,9
724,5	113,9
724,9	148,1
725,3	154,1
725,8	116,7
726,2	150,1
726,7	124,7
727,1	156,5
727,5	140,9
728	128,9
728,4	150,7
728,8	128,5
729,3	136,7
729,7	112,5
730,1	102,9
730,6	119,9
731	120,5
731,5	118,3
731,9	121,7
732,3	113,9
732,8	96,3
733,2	128,3
733,6	113,7
734,1	118,9
734,5	128,5
734,9	127,3
735,4	119,5
735,8	118,5
736,3	104,7
736,7	139,3
737,1	136,1
737,6	134,9
738	82,1
738,4	126,3
738,9	86,5
739,3	96,1
739,7	131,1
740,2	152,5
740,6	92,3
741,1	128,7
741,5	99,9
741,9	84,7
742,4	117,5
742,8	84,7
743,2	116,9
743,7	112,3
744,1	120,9
744,5	109,3
745	70,7
745,4	128,5
745,8	66,5
746,3	91,9
746,7	115,1
747,2	78,5
747,6	99,3
748	73,1
748,5	93,9
748,9	102,5
749,3	80,7
749,8	115,9
750,2	83,7
750,6	75,3
751,1	96,9
751,5	86,7
751,9	73,9
752,4	89,3
752,8	70,9
753,3	90,5
753,7	97,1
754,1	89,5
754,6	99,7
755	52,1
755,4	60,3
755,9	106,3
756,3	86,3
756,7	54,3
757,2	82,3
757,6	73,7
758	93,7
758,5	94,1
758,9	89,1
759,3	41,9
759,8	60,3
760,2	81,5
760,6	72,1
761,1	74,5
761,5	57,9
761,9	71,1
762,4	84,3
762,8	100,7
763,3	106,1
763,7	73,7
764,1	62,1
764,6	90,7
765	32,1
765,4	78,5
765,9	76,7
766,3	53,1
766,7	94,1
767,2	62,7
767,6	70,9
768	58,3
768,5	75,7
768,9	79,1
769,3	80,3
769,8	49,7
770,2	33,5
770,6	59,9
771,1	44,3
771,5	66,5
771,9	73,5
772,4	78,7
772,8	47,5
773,2	38,7
773,7	67,3
774,1	62,9
774,5	69,9
775	53,5
775,4	74,1
775,8	60,7
776,3	55,5
776,7	68,1
777,1	84,9
777,6	59,5
778	56,3
778,4	59,5
778,9	63,9
779,3	49,5
779,7	49,5
780,2	49,5
780,6	57,3
781	79,3
781,5	61,1
781,9	40,5
782,3	49,1
782,8	47,7
783,2	25,3
783,6	71,7
784,1	34,3
784,5	39,3
784,9	58,7
785,4	52,1
785,8	35,3
786,2	25,9
786,7	59,9
787,1	24,1
787,5	73,7
788	42,5
788,4	35,7
788,8	43,7
789,3	53,1
789,7	32,9
790,1	46,9
790,6	39,3
791	84,7
791,4	21,1
791,9	87,9
792,3	54,5
792,7	36,3
793,2	21,3
793,6	41,9
794	40,9
794,5	21,5
794,9	54,3
795,3	29,1
795,8	37,1
796,2	46,3
796,6	43,7
797,1	58,1
797,5	31,7
797,9	30,5
798,4	48,7
798,8	60,9
799,2	49,5
799,7	25,3
800,1	25,3
800,5	56,9
801	6,7
801,4	27,3
801,8	31,1
802,2	20,9
802,7	33,1
803,1	31,9
803,5	43,1
804	31,1
804,4	36,9
804,8	30,9
805,3	9,3
805,7	57,1
806,1	26,3
806,6	31,9
807	49,9
807,4	35,7
807,9	27,7
808,3	23,1
808,7	22,3
809,2	27,7
809,6	31,7
810	36,7
810,4	33,3
810,9	50,1
811,3	58,5
811,7	28,7
812,2	21,7
812,6	40,3
813	42,9
813,5	21,1
813,9	33,9
814,3	20,9
814,8	15,5
815,2	36,5
815,6	34,5
816,1	32,7
816,5	32,9
816,9	43,7
817,3	18,5
817,8	3,3
818,2	63,9
818,6	26,3
819,1	32,3
819,5	59,1
819,9	32,5
820,4	-4,3
820,8	14,1
821,2	26,9
821,7	28,9
822,1	29,1
822,5	32,5
822,9	26,9
823,4	5,1
823,8	17,7
824,2	1,5
824,7	33,5
825,1	24,7
825,5	18,5
826	22,5
826,4	5,9
826,8	34,1
827,3	66,9
827,7	37,1
828,1	16,9
828,5	18,5
829	40,9
829,4	35,5
829,8	30,1
830,3	9,5
830,7	42,9
831,1	5,1
831,6	18,5
832	-2,7
832,4	44,3
832,8	35,5
833,3	28,3
833,7	23,3
834,1	35,1
834,6	10,9
835	3,7
835,4	22,5
835,8	-11,1
836,3	5,9
836,7	32,5
837,1	-2,9
837,6	-1,5
838	38,7
838,4	25,5
838,9	11,1
839,3	23,7
839,7	18,1
840,1	20,1
840,6	18,7
841	-2,3
841,4	8,9
841,9	13,1
842,3	63,5
842,7	27,1
843,1	20,3
843,6	13,7
844	12,1
844,4	9,7
844,9	19,9
845,3	10,9
845,7	10,1
846,2	5,7
846,6	36,5
847	-5,7
847,4	-18,7
847,9	28,3
848,3	40,5
848,7	-4,9
849,2	20,3
849,6	39,7
850	8,7
850,4	59,7
850,9	41,1
851,3	-25,7
851,7	14,3
852,2	9,7
852,6	3,3
853	30,9
853,4	10,3
853,9	-17,3
854,3	-0,1
854,7	7,3
855,2	24,9
855,6	17,9
856	17,7
856,4	11,5
856,9	-10,5
857,3	9,7
857,7	7,1
858,2	-18,1
858,6	-3,9
859	29,3
859,4	21,7
859,9	14,3
860,3	27,7
860,7	40,9
861,1	39,3
861,6	4,3
862	34,7
862,4	17,1
862,9	24,5
863,3	25,9
863,7	9,7
864,1	26,5
864,6	11,7
865	19,3
865,4	4,9
865,9	-2,5
866,3	3,3
866,7	14,7
867,1	6,3
867,6	31,3
868	5,9
868,4	9,9
868,8	17,3
869,3	-1,1
869,7	-4,5
870,1	18,3
870,6	25,9
871	-4,9
871,4	6,7
871,8	50,3
872,3	16,1
872,7	-16,7
873,1	27,1
873,5	44,7
874	-4,9
874,4	23,9
874,8	21,5
875,3	16,7
875,7	-5,1
876,1	12,5
876,5	7,3
877	24,7
877,4	4,1
877,8	13,5
878,2	4,5
878,7	32,1
879,1	18,1
879,5	-12,9
879,9	1,9
880,4	10,1
880,8	-3,7
881,2	23,1
881,7	36,9
882,1	-17,3
882,5	-8,7
882,9	8,7
883,4	18,1
883,8	16,3
884,2	-25,3
884,6	9,7
885,1	-20,3
885,5	-15,9
885,9	-0,3
886,3	21,3
886,8	-4,3
887,2	-31,9
887,6	31,9
888	17,9
888,5	5,3
888,9	6,7
889,3	27,7
889,8	-4,3
890,2	2,9
890,6	1,3
891	13,7
891,5	-5,9
891,9	10,5
892,3	7,7
892,7	1,9
893,2	-3,3
893,6	-0,5
894	3,9
894,4	-1,7
894,9	17,9
895,3	3,3
895,7	15,7
896,1	10,5
896,6	16,7
897	-12,3
897,4	15,9
897,8	16,3
898,3	6,1
898,7	9,1
899,1	16,7
899,5	-9,1
900	1,9
900,4	0,5
900,8	31,9
901,2	6,3
901,7	-31,5
902,1	-9,1
902,5	19,1
902,9	-7,5
903,4	-2,1
903,8	-14,9
904,2	34,9
904,6	-6,5
905,1	-22,1
905,5	16,3
905,9	19,1
906,3	15,3
906,8	22,5
907,2	9,5
907,6	6,7
908	-3,7
908,5	19,7
908,9	-3,9
909,3	23,3
909,7	-5,5
910,2	22,3
910,6	12,3
911	-12,3
911,4	22,3
911,9	7,5
912,3	15,9
912,7	-21,7
913,1	-0,5
913,6	14,3
914	-15,9
914,4	-1,5
914,8	-20,9
915,3	5,7
915,7	8,3
916,1	15,1
916,5	-8,5
916,9	12,1
917,4	-8,1
917,8	-6,1
918,2	-0,7
918,6	-3,7
919,1	23,7
919,5	-21,9
919,9	27,3
920,3	29,5
920,8	4,7
921,2	22,3
921,6	-11,1
922	-28,9
922,5	19,9
922,9	22,3
923,3	-16,9
923,7	0,5
924,2	-13,9
924,6	-19,9
925	35,3
925,4	13,3
925,8	10,7
926,3	-32,9
926,7	24,1
927,1	-1,5
927,5	13,7
928	11,7
928,4	10,1
928,8	-7,1
929,2	1,3
929,7	-24,7
930,1	18,3
930,5	19,3
930,9	-17,9
931,3	1,3
931,8	-4,1
932,2	-3,5
932,6	-0,3
933	24,7
933,5	-1,1
933,9	7,7
934,3	7,9
934,7	14,3
935,2	-10,7
935,6	14,5
936	17,7
936,4	-3,3
936,8	26,9
937,3	-38,9
937,7	9,5
938,1	1,9
938,5	4,7
939	-19,1
939,4	-7,7
939,8	17,1
940,2	-12,7
940,6	-2,7
941,1	15,1
941,5	17,1
941,9	14,1
942,3	-25,5
942,8	-0,7
943,2	-14,9
943,6	14,3
944	-17,7
944,4	-29,1
944,9	17,1
945,3	23,1
945,7	-3,9
946,1	21,9
946,6	22,1
947	-14,3
947,4	14,5
947,8	23,7
948,2	10,5
948,7	-1,3
949,1	12,5
949,5	5,5
949,9	-18,7
950,3	-40,5
950,8	7,3
951,2	16,3
951,6	-15,1
952	-17,1
952,5	14,7
952,9	4,9
953,3	-15,1
953,7	9,3
954,1	-0,9
954,6	27,9
955	13,5
955,4	-7,5
955,8	15,9
956,2	-20,7
956,7	-35,5
957,1	-14,9
957,5	21,9
957,9	-15,7
958,3	16,1
958,8	2,1
959,2	30,1
959,6	-11,9
960	5,7
960,5	-2,9
960,9	-3,5
961,3	-25,5
961,7	-28,3
962,1	-15,9
962,6	23,7
963	3,3
963,4	24,3
963,8	-2,7
964,2	-6,5
964,7	5,7
965,1	7,5
965,5	4,3
965,9	-4,7
966,3	10,1
966,8	1,1
967,2	-31,7
967,6	0,9
968	12,1
968,4	-9,1
968,9	7,1
969,3	12,9
969,7	19,5
970,1	-17,7
970,5	2,7
971	1,1
971,4	14,1
971,8	-9,5
972,2	28,5
972,6	16,7
973,1	3,9
973,5	10,1
973,9	-3,7
974,3	10,5
974,7	20,7
975,2	26,1
975,6	-29,1
976	28,5
976,4	20,1
976,8	-7,1
977,3	2,7
977,7	-5,9
978,1	17,9
978,5	9,1
978,9	13,1
979,4	-10,5
979,8	21,9
980,2	-14,9
980,6	22,1
981	-4,3
981,5	-18,9
981,9	0,9
982,3	-10,3
982,7	7,3
983,1	10,9
983,6	27,7
984	-1,7
984,4	-1,7
984,8	3,3
985,2	0,7
985,6	14,5
986,1	12,9
986,5	14,7
986,9	3,1
987,3	5,3
987,7	36,9
988,2	15,5
988,6	12,1
989	-5,7
989,4	-34,1
989,8	22,9
990,3	-4,1
990,7	34,7
991,1	11,9
991,5	24,5
991,9	-20,5
992,3	-6,1
992,8	-7,3
993,2	17,1
993,6	-31,9
994	-23,1
994,4	-13,9
994,9	-2,5
995,3	-22,3
995,7	0,1
996,1	-16,1
996,5	-5,9
996,9	-3,1
997,4	-32,1
997,8	-27,5
998,2	-10,9
998,6	-5,5
999	9,1
999,5	-28,3
999,9	14,1
1000,3	13,7
1000,7	8,5
1001,1	-7,3
1001,5	-3,1
1002	25,5
1002,4	-25,7
1002,8	7,1
1003,2	-3,1
1003,6	1,5
1004	-26,9
1004,5	27,7
1004,9	10,5
1005,3	21,7
1005,7	7,3
1006,1	16,5
1006,6	13,7
1007	-12,9
1007,4	-4,1
1007,8	-9,9
1008,2	9,3
1008,6	19,5
1009,1	-7,7
1009,5	5,1
1009,9	5,9
1010,3	-8,9
1010,7	5,7
1011,1	-25,9
1011,6	-5,5
1012	4,5
1012,4	-21,3
1012,8	-2,7
1013,2	-12,5
1013,6	14,5
1014,1	4,1
1014,5	34,1
1014,9	43,9
1015,3	5,7
1015,7	-16,3
1016,1	2,3
1016,6	21,7
1017	5,9
1017,4	4,5
1017,8	5,3
1018,2	33,3
1018,6	-16,9
1019,1	-26,9
1019,5	-32,9
1019,9	-6,3
1020,3	-6,5
1020,7	19,7
1021,1	15,5
1021,6	-8,9
1022	-9,7
1022,4	3,7
1022,8	-4,7
1023,2	4,9
1023,6	-3,3
1024,1	-12,9
1024,5	5,9
1024,9	13,3
1025,3	31,1
1025,7	10,3
1026,1	14,9
1026,6	-13,3
1027	44,1
1027,4	37,1
1027,8	16,5
1028,2	-8,1
1028,6	-24,1
1029	-22,9
1029,5	40,1
1029,9	-23,5
1030,3	-0,1
1030,7	-4,5
1031,1	24,5
1031,5	5,3
1032	-9,1
1032,4	-7,9
1032,8	11,5
1033,2	-22,7
1033,6	19,5
1034	-2,3
1034,4	4,1
1034,9	-4,3
1035,3	-20,1
1035,7	6,1
1036,1	16,5
1036,5	25,3
1036,9	2,9
1037,4	-0,3
1037,8	2,3
1038,2	-17,1
1038,6	-9,7
1039	-7,3
1039,4	23,1
1039,8	-18,3
1040,3	6,7
1040,7	-2,7
1041,1	40,5
1041,5	36,1
1041,9	-2,3
1042,3	2,9
1042,7	-56,1
1043,2	-25,1
1043,6	5,9
1044	-20,9
1044,4	-23,9
1044,8	19,1
1045,2	-15,7
1045,6	-35,3
1046,1	11,7
1046,5	10,5
1046,9	14,3
1047,3	-23,1
1047,7	6,1
1048,1	11,9
1048,5	-27,5
1049	-12,5
1049,4	-34,1
1049,8	-25,1
1050,2	30,1
1050,6	32,1
1051	-5,7
1051,4	-8,7
1051,9	-7,9
1052,3	-26,7
1052,7	1,7
1053,1	-23,9
1053,5	4,9
1053,9	-9,7
1054,3	18,3
1054,8	-7,7
1055,2	6,7
1055,6	29,9
1056	9,9
1056,4	21,9
1056,8	4,9
1057,2	-30,5
1057,6	-5,9
1058,1	1,7
1058,5	8,9
1058,9	4,5
1059,3	4,5
1059,7	-13,9
1060,1	11,7
1060,5	23,7
1061	26,9
1061,4	-14,1
1061,8	32,7
1062,2	-18,5
1062,6	-11,9
1063	19,3
1063,4	-2,9
1063,8	10,7
1064,3	-19,9
1064,7	9,9
1065,1	-21,1
1065,5	29,9
1065,9	10,3
1066,3	10,3
1066,7	-28,9
1067,1	-26,1
1067,6	21,3
1068	16,9
1068,4	8,1
1068,8	-9,1
1069,2	6,5
1069,6	13,7
1070	-22,5
1070,4	17,5
1070,9	10,9
1071,3	-15,5
1071,7	10,1
1072,1	-4,3
1072,5	-5,3
1072,9	9,1
1073,3	-2,5
1073,7	-1,1
1074,2	3,9
1074,6	12,5
1075	23,3
1075,4	-22,7
1075,8	-10,7
1076,2	7,9
1076,6	17,5
1077	-19,5
1077,5	18,1
1077,9	2,9
1078,3	-13,9
1078,7	-3,5
1079,1	16,5
1079,5	-11,5
1079,9	-10,3
1080,3	0,5
1080,7	8,9
1081,2	0,9
1081,6	16,3
1082	14,1
1082,4	7,3
1082,8	-0,9
1083,2	-15,5
1083,6	-4,9
1084	-10,3
1084,5	5,5
1084,9	-9,7
1085,3	-9,5
1085,7	-4,1
1086,1	-13,3
1086,5	11,9
1086,9	-20,7
1087,3	6,5
1087,7	-21,1
1088,2	-7,9
1088,6	6,9
1089	-1,3
1089,4	1,3
1089,8	12,9
1090,2	4,9
1090,6	-8,9
1091	33,1
1091,4	-20,7
1091,9	4,5
1092,3	14,9
1092,7	7,3
1093,1	7,9
1093,5	21,3
1093,9	-0,7
1094,3	-9,7
1094,7	27,1
1095,1	-13,7
1095,5	-26,5
1096	-9,9
1096,4	14,9
1096,8	17,1
1097,2	5,7
1097,6	21,1
1098	4,9
1098,4	21,1
1098,8	1,1
1099,2	10,3
1099,6	-5,7
1100,1	6,5
1100,5	-2,9
1100,9	23,3
1101,3	8,3
1101,7	11,5
1102,1	-21,1
1102,5	-0,5
1102,9	-16,9
1103,3	7,7
1103,7	1,1
1104,2	-6,5
1104,6	7,3
1105	-15,3
1105,4	31,3
1105,8	18,7
1106,2	2,9
1106,6	-0,7
1107	0,1
1107,4	-2,5
1107,8	-0,7
1108,3	-0,3
