Data from Subt2_00013.txt Node
Date: Wed Aug 02 19:05:28 MSK 2023
User: vat
Spectrometer: MAYP114033
Trigger mode: 0
Integration Time (sec): 7,000000E-1
Scans to average: 5
Electric dark correction enabled: true
Nonlinearity correction enabled: false
Boxcar width: 0
XAxis mode: Wavelengths
Number of Pixels in Spectrum: 2068
>>>>>Begin Spectral Data<<<<<
199,4	-2,667
199,9	-1,267
200,4	-2,067
200,8	2,533
201,3	19,533
201,8	5,933
202,2	-9,267
202,7	2,933
203,2	11,933
203,6	-2,067
204,1	10,533
204,6	3,933
205	20,133
205,5	-4,467
206	2,533
206,4	22,333
206,9	5,733
207,4	4,733
207,8	4,533
208,3	13,733
208,8	-17,067
209,2	-12,467
209,7	-8,867
210,2	4,133
210,6	21,133
211,1	17,533
211,5	9,733
212	17,733
212,5	20,533
212,9	5,933
213,4	6,533
213,9	12,133
214,3	-30,667
214,8	12,733
215,3	11,333
215,7	-2,267
216,2	24,133
216,7	10,733
217,1	16,133
217,6	12,333
218,1	9,333
218,5	-15,867
219	23,733
219,5	-2,467
219,9	-22,667
220,4	-11,067
220,9	8,533
221,3	12,733
221,8	21,533
222,3	-24,067
222,7	22,533
223,2	13,333
223,6	-0,067
224,1	11,533
224,6	9,733
225	9,133
225,5	23,933
226	0,733
226,4	-8,267
226,9	9,533
227,4	-24,067
227,8	2,133
228,3	18,133
228,8	25,133
229,2	-15,667
229,7	8,133
230,2	37,933
230,6	31,733
231,1	11,133
231,5	15,133
232	17,933
232,5	15,333
232,9	13,533
233,4	-15,267
233,9	20,533
234,3	12,333
234,8	44,933
235,3	-6,867
235,7	15,333
236,2	-2,067
236,7	18,333
237,1	-7,867
237,6	13,133
238,1	19,333
238,5	4,733
239	-0,067
239,4	0,733
239,9	-1,267
240,4	-11,467
240,8	9,933
241,3	-16,867
241,8	0,333
242,2	-19,867
242,7	-0,467
243,2	15,133
243,6	5,333
244,1	17,733
244,6	8,133
245	19,533
245,5	34,933
245,9	36,133
246,4	-6,467
246,9	6,133
247,3	21,133
247,8	15,733
248,3	17,333
248,7	-16,667
249,2	-40,667
249,7	8,933
250,1	28,733
250,6	6,533
251	26,733
251,5	2,133
252	16,733
252,4	8,333
252,9	35,333
253,4	-3,867
253,8	20,733
254,3	36,933
254,8	16,533
255,2	-17,267
255,7	-5,467
256,1	-25,667
256,6	-12,067
257,1	8,533
257,5	22,733
258	18,933
258,5	0,333
258,9	-1,667
259,4	9,933
259,9	18,133
260,3	-15,667
260,8	22,933
261,2	31,933
261,7	8,733
262,2	27,333
262,6	5,533
263,1	4,933
263,6	19,533
264	14,333
264,5	2,333
264,9	-16,667
265,4	44,933
265,9	6,733
266,3	13,133
266,8	24,533
267,3	-8,867
267,7	2,333
268,2	3,933
268,7	11,533
269,1	1,533
269,6	-7,867
270	-21,667
270,5	-16,267
271	48,333
271,4	7,933
271,9	13,133
272,4	42,533
272,8	18,333
273,3	16,733
273,7	10,933
274,2	0,933
274,7	52,533
275,1	14,733
275,6	15,733
276,1	9,933
276,5	5,133
277	0,933
277,4	9,133
277,9	-8,867
278,4	22,333
278,8	20,133
279,3	-1,867
279,8	0,933
280,2	22,133
280,7	10,333
281,1	-8,067
281,6	15,733
282,1	-0,267
282,5	46,133
283	35,133
283,4	21,933
283,9	-6,867
284,4	-13,867
284,8	18,933
285,3	-19,467
285,8	12,333
286,2	4,933
286,7	27,533
287,1	-6,467
287,6	-14,667
288,1	-26,067
288,5	3,333
289	12,733
289,5	30,333
289,9	0,933
290,4	5,533
290,8	14,533
291,3	20,333
291,8	-3,467
292,2	1,733
292,7	5,733
293,1	-9,867
293,6	-3,067
294,1	-0,867
294,5	14,133
295	23,933
295,5	0,333
295,9	17,333
296,4	35,333
296,8	-7,067
297,3	-10,267
297,8	31,933
298,2	10,533
298,7	13,133
299,1	-17,267
299,6	-14,067
300,1	0,333
300,5	8,533
301	8,533
301,5	-12,667
301,9	-11,867
302,4	18,533
302,8	-3,867
303,3	15,333
303,8	25,333
304,2	20,133
304,7	38,733
305,1	-5,067
305,6	-17,667
306,1	-2,467
306,5	48,133
307	-34,067
307,4	1,733
307,9	21,733
308,4	7,533
308,8	11,733
309,3	6,533
309,8	5,533
310,2	1,533
310,7	11,133
311,1	4,733
311,6	-2,267
312,1	-13,267
312,5	-29,667
313	-23,467
313,4	4,933
313,9	18,733
314,4	14,133
314,8	15,533
315,3	4,733
315,7	9,933
316,2	16,533
316,7	18,133
317,1	28,333
317,6	-3,667
318	-7,467
318,5	17,933
319	34,933
319,4	4,533
319,9	-14,867
320,3	-10,867
320,8	-17,867
321,3	-29,667
321,7	24,733
322,2	-0,867
322,6	0,933
323,1	2,733
323,6	31,733
324	2,733
324,5	31,333
324,9	11,133
325,4	22,333
325,9	15,533
326,3	4,933
326,8	15,733
327,2	-6,067
327,7	-14,067
328,2	19,933
328,6	30,933
329,1	54,133
329,5	-5,267
330	37,533
330,5	3,133
330,9	13,933
331,4	1,333
331,8	10,933
332,3	-23,867
332,8	33,933
333,2	-30,867
333,7	12,133
334,1	3,533
334,6	5,133
335,1	-14,067
335,5	13,333
336	0,533
336,4	22,133
336,9	16,133
337,4	-12,267
337,8	16,333
338,3	-28,667
338,7	9,133
339,2	16,933
339,7	20,133
340,1	27,533
340,6	-0,067
341	2,933
341,5	16,933
342	15,533
342,4	12,133
342,9	23,933
343,3	29,333
343,8	31,333
344,2	18,133
344,7	0,533
345,2	18,933
345,6	-39,267
346,1	2,933
346,5	-5,267
347	-6,867
347,5	15,733
347,9	-3,067
348,4	5,133
348,8	16,933
349,3	-20,267
349,8	1,933
350,2	24,133
350,7	4,933
351,1	76,333
351,6	24,133
352	15,133
352,5	11,533
353	-11,067
353,4	21,933
353,9	17,733
354,3	11,333
354,8	39,933
355,3	33,733
355,7	49,333
356,2	46,133
356,6	54,933
357,1	91,733
357,5	54,333
358	75,333
358,5	136,733
358,9	144,333
359,4	143,333
359,8	151,733
360,3	197,733
360,8	214,733
361,2	269,733
361,7	317,333
362,1	328,733
362,6	395,933
363	435,133
363,5	475,933
364	550,733
364,4	629,133
364,9	671,133
365,3	717,533
365,8	783,333
366,3	841,133
366,7	837,333
367,2	919,733
367,6	954,133
368,1	967,933
368,5	1010,133
369	989,133
369,5	987,533
369,9	1001,933
370,4	990,733
370,8	957,933
371,3	929,933
371,7	920,133
372,2	880,133
372,7	822,533
373,1	806,933
373,6	766,133
374	703,333
374,5	646,533
374,9	583,133
375,4	557,733
375,9	503,533
376,3	515,933
376,8	422,733
377,2	388,933
377,7	348,733
378,2	328,933
378,6	313,533
379,1	249,333
379,5	260,733
380	241,933
380,4	246,333
380,9	198,133
381,4	205,533
381,8	164,333
382,3	158,133
382,7	154,333
383,2	132,733
383,6	123,933
384,1	119,133
384,6	116,533
385	80,933
385,5	96,533
385,9	115,333
386,4	64,333
386,8	59,733
387,3	100,933
387,7	52,333
388,2	59,133
388,7	86,133
389,1	51,333
389,6	41,133
390	73,133
390,5	52,133
390,9	54,933
391,4	25,333
391,9	57,333
392,3	20,533
392,8	42,933
393,2	31,933
393,7	53,733
394,1	51,333
394,6	35,333
395,1	19,733
395,5	56,933
396	29,733
396,4	25,133
396,9	31,133
397,3	36,933
397,8	34,933
398,2	31,533
398,7	30,533
399,2	46,133
399,6	37,933
400,1	28,333
400,5	37,933
401	13,933
401,4	26,933
401,9	24,733
402,4	-2,067
402,8	38,933
403,3	0,933
403,7	16,933
404,2	34,933
404,6	26,533
405,1	12,533
405,5	27,133
406	10,733
406,5	21,533
406,9	28,333
407,4	19,333
407,8	2,933
408,3	21,933
408,7	32,133
409,2	53,733
409,6	36,733
410,1	38,933
410,6	-6,467
411	35,333
411,5	21,933
411,9	29,333
412,4	64,933
412,8	41,333
413,3	39,933
413,7	26,733
414,2	52,533
414,7	56,133
415,1	68,133
415,6	72,333
416	29,533
416,5	68,733
416,9	83,933
417,4	106,533
417,8	119,533
418,3	116,133
418,8	83,133
419,2	103,133
419,7	119,333
420,1	79,533
420,6	101,533
421	103,933
421,5	117,333
421,9	139,933
422,4	124,733
422,8	138,933
423,3	126,333
423,8	144,933
424,2	185,733
424,7	155,933
425,1	144,933
425,6	166,733
426	186,333
426,5	199,333
426,9	170,333
427,4	171,533
427,9	209,933
428,3	201,733
428,8	262,133
429,2	242,333
429,7	285,733
430,1	275,733
430,6	241,533
431	257,333
431,5	286,533
431,9	310,333
432,4	302,733
432,8	349,133
433,3	370,133
433,8	406,133
434,2	379,933
434,7	430,533
435,1	408,733
435,6	439,933
436	461,533
436,5	482,333
436,9	523,133
437,4	578,333
437,8	549,533
438,3	593,733
438,8	619,533
439,2	648,133
439,7	668,733
440,1	710,733
440,6	737,133
441	746,533
441,5	787,933
441,9	822,933
442,4	873,133
442,8	905,133
443,3	936,733
443,7	1014,133
444,2	1024,733
444,7	1093,533
445,1	1127,133
445,6	1203,933
446	1243,533
446,5	1261,933
446,9	1336,333
447,4	1357,133
447,8	1400,933
448,3	1460,933
448,7	1531,133
449,2	1566,133
449,6	1620,133
450,1	1708,333
450,6	1713,333
451	1779,733
451,5	1830,133
451,9	1892,733
452,4	1977,533
452,8	2062,933
453,3	2115,133
453,7	2154,933
454,2	2262,333
454,6	2308,733
455,1	2339,733
455,5	2426,533
456	2543,133
456,4	2598,333
456,9	2689,333
457,3	2728,933
457,8	2759,733
458,3	2876,933
458,7	2918,733
459,2	3024,533
459,6	3052,933
460,1	3145,133
460,5	3232,133
461	3278,733
461,4	3370,133
461,9	3469,733
462,3	3511,533
462,8	3652,533
463,2	3675,333
463,7	3729,733
464,1	3821,133
464,6	3941,133
465	3948,933
465,5	4039,733
466	4095,533
466,4	4188,333
466,9	4252,133
467,3	4287,933
467,8	4405,733
468,2	4467,133
468,7	4522,733
469,1	4629,933
469,6	4664,933
470	4701,533
470,5	4787,133
470,9	4878,533
471,4	4931,933
471,8	4987,333
472,3	5067,533
472,7	5098,333
473,2	5158,933
473,6	5221,933
474,1	5311,933
474,5	5359,933
475	5419,133
475,4	5458,733
475,9	5568,533
476,4	5567,533
476,8	5659,533
477,3	5658,133
477,7	5732,733
478,2	5764,733
478,6	5815,733
479,1	5868,933
479,5	5880,133
480	5957,733
480,4	6014,133
480,9	5997,533
481,3	6020,733
481,8	6074,933
482,2	6144,733
482,7	6084,533
483,1	6188,733
483,6	6196,333
484	6259,533
484,5	6211,333
484,9	6244,133
485,4	6237,733
485,8	6270,133
486,3	6315,133
486,7	6321,933
487,2	6367,933
487,6	6324,333
488,1	6353,333
488,5	6394,533
489	6363,533
489,4	6371,733
489,9	6388,933
490,4	6418,133
490,8	6416,533
491,3	6376,733
491,7	6373,533
492,2	6372,333
492,6	6374,133
493,1	6357,333
493,5	6313,533
494	6335,333
494,4	6316,533
494,9	6270,533
495,3	6282,733
495,8	6250,133
496,2	6222,333
496,7	6181,733
497,1	6200,533
497,6	6195,333
498	6194,933
498,5	6171,333
498,9	6131,933
499,4	6073,333
499,8	6099,533
500,3	6012,133
500,7	6035,933
501,2	6026,333
501,6	5972,733
502,1	5982,933
502,5	5899,133
503	5933,733
503,4	5844,333
503,9	5774,133
504,3	5812,333
504,8	5802,733
505,2	5718,933
505,7	5699,733
506,1	5677,933
506,6	5616,933
507	5596,333
507,5	5528,333
507,9	5497,333
508,4	5438,533
508,8	5437,133
509,3	5374,933
509,7	5363,533
510,2	5342,933
510,6	5253,733
511,1	5219,333
511,5	5183,333
512	5120,333
512,4	5135,133
512,9	5077,133
513,3	5033,733
513,8	4980,533
514,2	4931,333
514,7	4892,733
515,1	4889,733
515,6	4844,933
516	4804,333
516,5	4738,333
516,9	4681,333
517,4	4644,533
517,8	4563,133
518,3	4505,933
518,7	4500,933
519,2	4468,333
519,6	4370,933
520,1	4366,533
520,5	4334,533
521	4252,533
521,4	4241,933
521,9	4181,933
522,3	4179,333
522,8	4104,933
523,2	4073,733
523,7	3998,133
524,1	4008,733
524,6	3926,333
525	3852,133
525,5	3848,733
525,9	3814,533
526,4	3792,333
526,8	3731,733
527,3	3664,333
527,7	3672,533
528,2	3592,533
528,6	3535,533
529,1	3547,133
529,5	3473,733
530	3415,933
530,4	3392,333
530,9	3371,333
531,3	3309,333
531,8	3327,333
532,2	3252,133
532,6	3211,333
533,1	3165,933
533,5	3129,733
534	3114,933
534,4	3046,533
534,9	3054,933
535,3	3020,733
535,8	2925,733
536,2	2914,933
536,7	2852,933
537,1	2859,733
537,6	2824,533
538	2813,533
538,5	2734,533
538,9	2747,533
539,4	2699,933
539,8	2673,933
540,3	2631,533
540,7	2618,933
541,2	2573,533
541,6	2536,933
542,1	2528,933
542,5	2496,333
543	2434,733
543,4	2437,733
543,9	2417,733
544,3	2352,133
544,8	2337,733
545,2	2319,733
545,7	2305,533
546,1	2256,333
546,5	2249,133
547	2201,533
547,4	2167,933
547,9	2124,333
548,3	2137,533
548,8	2128,133
549,2	2053,533
549,7	2057,933
550,1	2057,933
550,6	2004,333
551	2005,133
551,5	1978,333
551,9	1927,733
552,4	1914,333
552,8	1904,133
553,3	1835,333
553,7	1816,733
554,2	1885,533
554,6	1788,533
555,1	1782,333
555,5	1752,333
555,9	1744,533
556,4	1755,533
556,8	1725,733
557,3	1683,333
557,7	1679,733
558,2	1679,733
558,6	1631,733
559,1	1625,533
559,5	1620,533
560	1571,933
560,4	1605,933
560,9	1535,133
561,3	1538,333
561,8	1514,133
562,2	1455,533
562,7	1484,333
563,1	1438,933
563,6	1454,733
564	1485,133
564,4	1434,133
564,9	1414,733
565,3	1402,733
565,8	1376,733
566,2	1358,733
566,7	1375,933
567,1	1315,933
567,6	1334,533
568	1309,133
568,5	1275,333
568,9	1311,933
569,4	1269,133
569,8	1255,133
570,3	1227,333
570,7	1250,533
571,1	1225,533
571,6	1224,133
572	1201,133
572,5	1198,733
572,9	1159,333
573,4	1126,333
573,8	1149,533
574,3	1156,333
574,7	1110,933
575,2	1108,533
575,6	1116,133
576,1	1118,133
576,5	1066,733
576,9	1060,533
577,4	1081,733
577,8	1019,533
578,3	1007,333
578,7	1046,333
579,2	1024,533
579,6	965,733
580,1	1017,133
580,5	974,533
581	986,533
581,4	966,133
581,9	982,933
582,3	928,533
582,7	920,333
583,2	922,333
583,6	910,733
584,1	889,533
584,5	888,733
585	873,533
585,4	893,933
585,9	882,533
586,3	848,133
586,8	876,933
587,2	812,933
587,6	820,133
588,1	798,533
588,5	845,333
589	844,933
589,4	791,733
589,9	796,933
590,3	752,533
590,8	779,733
591,2	793,333
591,7	755,133
592,1	768,133
592,5	748,133
593	781,733
593,4	765,533
593,9	736,333
594,3	743,333
594,8	703,333
595,2	713,133
595,7	720,333
596,1	684,733
596,6	691,933
597	699,533
597,4	680,733
597,9	671,533
598,3	693,533
598,8	680,133
599,2	655,133
599,7	690,133
600,1	634,933
600,6	658,133
601	649,933
601,4	627,733
601,9	638,133
602,3	630,933
602,8	622,533
603,2	610,933
603,7	617,333
604,1	655,733
604,6	585,133
605	616,733
605,4	618,533
605,9	594,733
606,3	601,333
606,8	581,533
607,2	581,333
607,7	562,933
608,1	583,133
608,6	556,933
609	550,133
609,4	558,333
609,9	562,933
610,3	562,733
610,8	559,533
611,2	542,133
611,7	554,733
612,1	561,133
612,6	547,533
613	527,933
613,4	535,733
613,9	543,333
614,3	470,733
614,8	539,733
615,2	510,533
615,7	482,333
616,1	498,133
616,6	490,933
617	469,933
617,4	501,933
617,9	485,933
618,3	506,333
618,8	483,933
619,2	471,333
619,7	467,933
620,1	469,333
620,5	459,933
621	471,533
621,4	448,533
621,9	464,733
622,3	457,533
622,8	455,533
623,2	446,333
623,6	456,533
624,1	454,333
624,5	454,933
625	430,333
625,4	417,933
625,9	418,133
626,3	408,533
626,8	435,533
627,2	435,133
627,6	410,133
628,1	413,733
628,5	365,733
629	427,333
629,4	442,533
629,9	421,733
630,3	386,333
630,7	389,933
631,2	412,133
631,6	400,733
632,1	379,133
632,5	377,333
633	386,533
633,4	382,533
633,8	385,133
634,3	358,933
634,7	365,333
635,2	367,933
635,6	379,333
636,1	401,133
636,5	353,933
636,9	367,933
637,4	372,933
637,8	339,733
638,3	338,133
638,7	373,733
639,2	350,533
639,6	363,533
640	339,533
640,5	335,333
640,9	359,733
641,4	334,733
641,8	326,733
642,2	359,733
642,7	308,533
643,1	340,733
643,6	368,333
644	342,133
644,5	377,133
644,9	335,733
645,3	324,333
645,8	317,933
646,2	337,133
646,7	294,133
647,1	326,933
647,6	308,533
648	329,933
648,4	307,933
648,9	302,533
649,3	324,933
649,8	320,133
650,2	307,733
650,6	271,733
651,1	303,533
651,5	277,933
652	307,533
652,4	301,133
652,9	311,333
653,3	321,333
653,7	304,533
654,2	310,133
654,6	306,733
655,1	302,533
655,5	295,533
655,9	294,333
656,4	278,733
656,8	285,733
657,3	271,733
657,7	302,133
658,2	307,333
658,6	272,533
659	288,733
659,5	295,333
659,9	283,533
660,4	265,733
660,8	266,533
661,2	294,133
661,7	276,733
662,1	302,733
662,6	241,933
663	310,733
663,4	272,333
663,9	278,933
664,3	275,933
664,8	263,133
665,2	240,933
665,6	277,933
666,1	277,533
666,5	262,133
667	237,933
667,4	279,733
667,9	234,933
668,3	245,333
668,7	251,933
669,2	279,133
669,6	252,133
670,1	264,933
670,5	289,733
670,9	227,933
671,4	233,533
671,8	250,733
672,3	232,733
672,7	225,933
673,1	276,733
673,6	237,533
674	236,533
674,5	236,733
674,9	227,533
675,3	249,133
675,8	261,733
676,2	214,933
676,7	240,133
677,1	230,533
677,5	230,933
678	224,933
678,4	230,133
678,9	229,733
679,3	221,933
679,7	218,733
680,2	207,333
680,6	264,533
681,1	241,133
681,5	239,933
681,9	206,533
682,4	178,333
682,8	216,733
683,3	202,933
683,7	192,933
684,1	213,133
684,6	217,533
685	195,733
685,5	212,733
685,9	212,533
686,3	206,333
686,8	160,733
687,2	203,733
687,7	190,133
688,1	211,733
688,5	202,133
689	206,533
689,4	210,333
689,9	197,533
690,3	190,133
690,7	198,933
691,2	182,933
691,6	224,733
692	206,333
692,5	221,133
692,9	209,333
693,4	190,133
693,8	195,733
694,2	194,933
694,7	170,133
695,1	191,133
695,6	180,133
696	184,533
696,4	177,933
696,9	189,533
697,3	169,733
697,8	199,533
698,2	197,733
698,6	195,333
699,1	200,933
699,5	158,933
699,9	184,733
700,4	173,333
700,8	194,333
701,3	205,533
701,7	191,933
702,1	182,133
702,6	164,733
703	155,533
703,5	169,933
703,9	171,333
704,3	171,733
704,8	164,533
705,2	209,333
705,6	185,133
706,1	167,933
706,5	184,733
707	162,333
707,4	159,733
707,8	174,133
708,3	183,933
708,7	179,733
709,2	170,133
709,6	148,333
710	168,733
710,5	135,533
710,9	147,733
711,3	140,533
711,8	150,933
712,2	164,133
712,7	157,933
713,1	169,933
713,5	174,933
714	130,133
714,4	160,533
714,8	144,333
715,3	161,533
715,7	155,133
716,2	184,933
716,6	152,133
717	153,133
717,5	129,133
717,9	153,533
718,3	161,533
718,8	156,733
719,2	160,733
719,7	122,533
720,1	155,333
720,5	121,133
721	156,933
721,4	147,733
721,8	143,533
722,3	138,333
722,7	116,333
723,2	134,133
723,6	132,533
724	121,533
724,5	127,533
724,9	156,133
725,3	125,133
725,8	149,733
726,2	128,133
726,7	132,333
727,1	137,333
727,5	144,333
728	113,733
728,4	129,733
728,8	140,933
729,3	151,533
729,7	131,533
730,1	107,333
730,6	107,333
731	127,733
731,5	133,133
731,9	139,933
732,3	101,733
732,8	105,933
733,2	110,733
733,6	139,133
734,1	123,133
734,5	115,733
734,9	106,733
735,4	137,333
735,8	133,533
736,3	146,333
736,7	120,533
737,1	123,933
737,6	127,933
738	134,133
738,4	104,733
738,9	114,933
739,3	148,533
739,7	133,533
740,2	131,733
740,6	142,733
741,1	123,733
741,5	119,333
741,9	120,533
742,4	106,733
742,8	100,933
743,2	129,533
743,7	118,533
744,1	111,133
744,5	137,933
745	105,933
745,4	102,533
745,8	90,333
746,3	119,533
746,7	120,333
747,2	125,533
747,6	121,333
748	95,133
748,5	99,533
748,9	123,333
749,3	126,933
749,8	100,533
750,2	106,533
750,6	106,333
751,1	110,533
751,5	105,933
751,9	121,533
752,4	128,933
752,8	107,333
753,3	113,933
753,7	120,733
754,1	80,933
754,6	116,933
755	124,933
755,4	104,533
755,9	107,933
756,3	80,133
756,7	126,333
757,2	97,933
757,6	83,533
758	137,933
758,5	137,133
758,9	98,933
759,3	85,533
759,8	97,733
760,2	96,533
760,6	95,533
761,1	84,933
761,5	76,333
761,9	101,933
762,4	91,133
762,8	122,933
763,3	75,133
763,7	58,133
764,1	83,733
764,6	92,333
765	92,333
765,4	82,333
765,9	88,333
766,3	93,933
766,7	93,533
767,2	91,733
767,6	73,533
768	67,933
768,5	98,333
768,9	79,733
769,3	82,933
769,8	70,933
770,2	97,133
770,6	74,133
771,1	107,733
771,5	65,333
771,9	93,133
772,4	76,333
772,8	84,533
773,2	78,733
773,7	82,533
774,1	77,333
774,5	85,733
775	88,133
775,4	92,333
775,8	105,933
776,3	82,733
776,7	74,733
777,1	88,933
777,6	95,533
778	61,333
778,4	107,933
778,9	85,533
779,3	89,533
779,7	114,733
780,2	102,933
780,6	101,133
781	103,733
781,5	99,533
781,9	64,533
782,3	80,733
782,8	59,933
783,2	75,133
783,6	86,333
784,1	95,533
784,5	117,133
784,9	63,133
785,4	91,933
785,8	79,933
786,2	70,533
786,7	73,533
787,1	69,733
787,5	83,533
788	63,733
788,4	118,533
788,8	65,133
789,3	68,933
789,7	77,933
790,1	68,933
790,6	71,733
791	64,933
791,4	73,933
791,9	49,333
792,3	62,133
792,7	91,133
793,2	72,733
793,6	82,133
794	54,133
794,5	79,133
794,9	71,733
795,3	51,733
795,8	59,133
796,2	55,133
796,6	85,933
797,1	54,333
797,5	97,733
797,9	71,133
798,4	76,133
798,8	78,933
799,2	38,933
799,7	74,533
800,1	47,533
800,5	70,133
801	70,333
801,4	66,733
801,8	46,933
802,2	48,933
802,7	36,733
803,1	71,333
803,5	54,733
804	66,533
804,4	24,933
804,8	50,333
805,3	60,933
805,7	64,333
806,1	55,133
806,6	36,333
807	45,533
807,4	57,333
807,9	89,133
808,3	43,933
808,7	53,933
809,2	45,733
809,6	60,533
810	60,533
810,4	83,333
810,9	59,933
811,3	79,533
811,7	71,133
812,2	28,533
812,6	73,333
813	28,733
813,5	54,533
813,9	50,933
814,3	59,733
814,8	57,733
815,2	46,133
815,6	18,333
816,1	77,933
816,5	59,533
816,9	59,333
817,3	25,333
817,8	64,733
818,2	38,133
818,6	77,733
819,1	61,733
819,5	27,733
819,9	47,333
820,4	54,933
820,8	23,533
821,2	50,133
821,7	53,533
822,1	55,733
822,5	56,133
822,9	30,333
823,4	32,133
823,8	52,133
824,2	22,333
824,7	63,933
825,1	59,133
825,5	33,533
826	49,733
826,4	25,133
826,8	56,133
827,3	62,933
827,7	27,733
828,1	58,533
828,5	38,733
829	58,133
829,4	11,533
829,8	48,133
830,3	42,333
830,7	36,333
831,1	25,933
831,6	19,933
832	26,133
832,4	77,333
832,8	16,933
833,3	52,333
833,7	56,133
834,1	32,933
834,6	46,933
835	55,733
835,4	40,733
835,8	34,733
836,3	59,733
836,7	33,333
837,1	33,333
837,6	16,133
838	27,933
838,4	66,733
838,9	42,733
839,3	32,733
839,7	22,333
840,1	55,933
840,6	47,133
841	35,733
841,4	6,933
841,9	60,133
842,3	34,533
842,7	50,533
843,1	27,533
843,6	38,733
844	61,733
844,4	34,933
844,9	24,133
845,3	16,133
845,7	31,733
846,2	16,333
846,6	14,533
847	63,133
847,4	52,733
847,9	68,733
848,3	44,133
848,7	41,733
849,2	44,133
849,6	25,133
850	37,933
850,4	50,133
850,9	57,333
851,3	41,133
851,7	31,933
852,2	6,933
852,6	40,333
853	28,333
853,4	66,733
853,9	13,933
854,3	16,333
854,7	23,133
855,2	56,133
855,6	0,533
856	23,333
856,4	24,333
856,9	49,733
857,3	43,133
857,7	11,733
858,2	20,133
858,6	16,933
859	25,533
859,4	28,533
859,9	8,733
860,3	42,133
860,7	19,133
861,1	46,133
861,6	16,933
862	40,133
862,4	32,733
862,9	29,333
863,3	12,733
863,7	17,733
864,1	41,733
864,6	30,533
865	30,333
865,4	29,133
865,9	16,533
866,3	11,133
866,7	24,133
867,1	17,533
867,6	27,733
868	34,933
868,4	26,133
868,8	7,933
869,3	10,333
869,7	11,533
870,1	17,533
870,6	23,533
871	34,133
871,4	16,733
871,8	26,933
872,3	22,933
872,7	5,333
873,1	8,733
873,5	11,733
874	36,333
874,4	-1,867
874,8	23,333
875,3	-13,467
875,7	25,333
876,1	30,933
876,5	23,533
877	28,533
877,4	35,533
877,8	13,733
878,2	40,133
878,7	8,333
879,1	20,933
879,5	30,733
879,9	24,133
880,4	11,933
880,8	1,733
881,2	29,933
881,7	24,533
882,1	16,333
882,5	43,733
882,9	40,533
883,4	48,133
883,8	27,733
884,2	3,933
884,6	24,133
885,1	12,933
885,5	20,333
885,9	24,333
886,3	-10,667
886,8	-4,667
887,2	40,733
887,6	22,733
888	48,933
888,5	14,733
888,9	-1,067
889,3	37,333
889,8	3,533
890,2	10,133
890,6	9,733
891	19,133
891,5	18,733
891,9	17,733
892,3	18,733
892,7	19,533
893,2	13,133
893,6	21,333
894	11,733
894,4	12,533
894,9	16,733
895,3	3,933
895,7	24,733
896,1	6,333
896,6	14,133
897	31,933
897,4	26,933
897,8	30,933
898,3	23,533
898,7	-6,667
899,1	-3,067
899,5	33,133
900	30,333
900,4	37,133
900,8	37,933
901,2	-7,267
901,7	14,533
902,1	4,733
902,5	-0,067
902,9	26,933
903,4	38,333
903,8	25,933
904,2	31,933
904,6	37,533
905,1	2,533
905,5	14,133
905,9	-2,267
906,3	3,733
906,8	25,533
907,2	39,133
907,6	7,933
908	-5,667
908,5	40,533
908,9	11,133
909,3	-1,067
909,7	28,333
910,2	40,133
910,6	37,333
911	-4,467
911,4	28,133
911,9	12,133
912,3	23,933
912,7	37,133
913,1	-16,267
913,6	-17,467
914	38,933
914,4	43,733
914,8	19,933
915,3	40,933
915,7	37,733
916,1	19,933
916,5	14,333
916,9	22,133
917,4	1,733
917,8	20,533
918,2	-12,667
918,6	11,933
919,1	39,933
919,5	18,533
919,9	-8,867
920,3	18,533
920,8	9,133
921,2	9,933
921,6	-24,467
922	-14,267
922,5	3,533
922,9	-11,467
923,3	0,733
923,7	18,933
924,2	16,133
924,6	11,533
925	9,733
925,4	17,733
925,8	28,333
926,3	-7,667
926,7	8,333
927,1	30,933
927,5	-11,467
928	26,533
928,4	9,533
928,8	-6,667
929,2	12,933
929,7	10,733
930,1	0,533
930,5	31,933
930,9	-10,067
931,3	28,933
931,8	35,533
932,2	39,333
932,6	-3,067
933	22,733
933,5	26,333
933,9	8,933
934,3	-27,867
934,7	4,133
935,2	15,533
935,6	-8,667
936	0,933
936,4	24,533
936,8	19,133
937,3	18,733
937,7	14,333
938,1	2,533
938,5	16,733
939	12,533
939,4	23,333
939,8	-2,867
940,2	26,933
940,6	-6,067
941,1	26,533
941,5	7,733
941,9	-7,267
942,3	29,933
942,8	20,733
943,2	-5,067
943,6	0,333
944	5,133
944,4	-15,867
944,9	4,133
945,3	3,133
945,7	-3,467
946,1	-7,067
946,6	9,333
947	34,533
947,4	6,733
947,8	2,733
948,2	27,733
948,7	17,933
949,1	0,733
949,5	-0,667
949,9	5,533
950,3	22,533
950,8	-8,867
951,2	-6,867
951,6	27,133
952	-11,067
952,5	24,733
952,9	40,533
953,3	25,133
953,7	17,733
954,1	-4,467
954,6	26,933
955	15,733
955,4	-4,867
955,8	35,133
956,2	26,133
956,7	25,333
957,1	29,533
957,5	4,533
957,9	14,333
958,3	26,533
958,8	-5,667
959,2	24,333
959,6	9,333
960	-9,467
960,5	-0,067
960,9	16,333
961,3	-3,667
961,7	35,133
962,1	33,333
962,6	-25,067
963	-10,467
963,4	18,533
963,8	-1,467
964,2	37,733
964,7	8,933
965,1	-5,667
965,5	8,533
965,9	-19,267
966,3	-12,867
966,8	15,733
967,2	-29,067
967,6	19,533
968	7,133
968,4	7,733
968,9	-9,467
969,3	-1,467
969,7	7,533
970,1	14,733
970,5	4,533
971	11,733
971,4	4,133
971,8	4,333
972,2	28,733
972,6	5,733
973,1	-5,067
973,5	-1,067
973,9	9,133
974,3	8,533
974,7	0,533
975,2	17,933
975,6	-12,067
976	-11,467
976,4	12,733
976,8	18,733
977,3	-10,067
977,7	-4,867
978,1	22,733
978,5	36,733
978,9	14,733
979,4	28,733
979,8	4,733
980,2	29,133
980,6	4,133
981	0,933
981,5	-1,667
981,9	12,333
982,3	9,933
982,7	31,133
983,1	36,333
983,6	-6,467
984	21,133
984,4	-13,267
984,8	30,333
985,2	17,933
985,6	16,333
986,1	5,533
986,5	-6,067
986,9	12,333
987,3	28,733
987,7	27,133
988,2	-0,467
988,6	1,333
989	4,133
989,4	1,133
989,8	32,133
990,3	0,933
990,7	29,533
991,1	-9,267
991,5	18,133
991,9	27,733
992,3	11,933
992,8	-30,067
993,2	24,533
993,6	-18,467
994	-24,467
994,4	19,133
994,9	5,533
995,3	-33,867
995,7	23,533
996,1	0,533
996,5	-12,867
996,9	12,133
997,4	-4,667
997,8	4,733
998,2	-39,467
998,6	15,133
999	17,133
999,5	6,333
999,9	-11,867
1000,3	23,733
1000,7	14,933
1001,1	33,333
1001,5	15,533
1002	9,733
1002,4	29,733
1002,8	28,733
1003,2	21,333
1003,6	5,333
1004	10,133
1004,5	19,733
1004,9	7,333
1005,3	-12,467
1005,7	9,733
1006,1	17,733
1006,6	-19,267
1007	26,933
1007,4	23,933
1007,8	40,933
1008,2	-2,667
1008,6	22,733
1009,1	11,933
1009,5	-12,667
1009,9	13,733
1010,3	7,733
1010,7	1,333
1011,1	6,933
1011,6	-23,267
1012	-1,067
1012,4	1,533
1012,8	-10,867
1013,2	10,333
1013,6	1,933
1014,1	24,133
1014,5	5,133
1014,9	12,533
1015,3	21,733
1015,7	-0,467
1016,1	25,133
1016,6	14,733
1017	35,133
1017,4	5,933
1017,8	-0,667
1018,2	12,533
1018,6	-4,467
1019,1	9,733
1019,5	36,333
1019,9	-10,067
1020,3	5,333
1020,7	36,133
1021,1	24,733
1021,6	7,933
1022	-11,467
1022,4	8,733
1022,8	19,133
1023,2	6,733
1023,6	-4,867
1024,1	20,933
1024,5	-13,667
1024,9	8,933
1025,3	45,333
1025,7	23,733
1026,1	44,333
1026,6	-28,467
1027	22,933
1027,4	54,333
1027,8	6,533
1028,2	-10,667
1028,6	12,933
1029	21,533
1029,5	13,933
1029,9	15,133
1030,3	0,533
1030,7	-8,467
1031,1	-28,867
1031,5	21,533
1032	7,133
1032,4	15,733
1032,8	-31,467
1033,2	-1,067
1033,6	10,533
1034	25,733
1034,4	10,933
1034,9	17,333
1035,3	5,933
1035,7	32,733
1036,1	1,133
1036,5	-0,267
1036,9	4,533
1037,4	12,333
1037,8	-2,867
1038,2	0,133
1038,6	10,533
1039	21,333
1039,4	11,133
1039,8	-19,267
1040,3	16,933
1040,7	2,133
1041,1	-4,667
1041,5	38,533
1041,9	38,333
1042,3	40,533
1042,7	36,133
1043,2	3,533
1043,6	5,533
1044	16,333
1044,4	5,933
1044,8	-6,667
1045,2	5,533
1045,6	-12,267
1046,1	4,533
1046,5	9,933
1046,9	19,533
1047,3	34,533
1047,7	4,133
1048,1	18,933
1048,5	-12,867
1049	1,933
1049,4	-0,267
1049,8	23,133
1050,2	-11,067
1050,6	14,333
1051	21,333
1051,4	9,933
1051,9	-22,467
1052,3	19,933
1052,7	-21,467
1053,1	11,133
1053,5	-12,667
1053,9	16,733
1054,3	-5,067
1054,8	-1,667
1055,2	5,133
1055,6	19,533
1056	-0,067
1056,4	-24,867
1056,8	-27,467
1057,2	3,533
1057,6	43,333
1058,1	17,333
1058,5	21,533
1058,9	10,733
1059,3	-20,667
1059,7	13,333
1060,1	-29,867
1060,5	13,733
1061	28,933
1061,4	16,133
1061,8	48,133
1062,2	17,733
1062,6	-5,267
1063	-11,267
1063,4	14,133
1063,8	29,733
1064,3	-6,067
1064,7	3,733
1065,1	2,733
1065,5	11,733
1065,9	0,133
1066,3	39,333
1066,7	1,733
1067,1	-0,067
1067,6	34,133
1068	-2,467
1068,4	-16,267
1068,8	37,533
1069,2	-15,667
1069,6	12,533
1070	-9,467
1070,4	-12,867
1070,9	-1,667
1071,3	6,733
1071,7	-21,667
1072,1	17,733
1072,5	12,333
1072,9	22,533
1073,3	-4,467
1073,7	1,933
1074,2	-15,267
1074,6	31,533
1075	25,733
1075,4	17,733
1075,8	37,733
1076,2	-2,467
1076,6	31,533
1077	9,733
1077,5	1,133
1077,9	-4,267
1078,3	0,533
1078,7	2,333
1079,1	-2,267
1079,5	7,333
1079,9	23,733
1080,3	-9,867
1080,7	5,333
1081,2	39,533
1081,6	17,133
1082	10,933
1082,4	6,333
1082,8	22,133
1083,2	23,533
1083,6	24,533
1084	24,133
1084,5	-4,267
1084,9	16,933
1085,3	14,333
1085,7	-2,867
1086,1	7,733
1086,5	18,133
1086,9	17,933
1087,3	-1,867
1087,7	-6,467
1088,2	10,333
1088,6	12,533
1089	-12,467
1089,4	-1,067
1089,8	4,133
1090,2	32,533
1090,6	6,933
1091	-13,467
1091,4	3,533
1091,9	-16,867
1092,3	11,533
1092,7	-10,467
1093,1	29,733
1093,5	5,733
1093,9	-21,467
1094,3	10,333
1094,7	0,733
1095,1	-7,867
1095,5	12,333
1096	13,133
1096,4	-1,267
1096,8	1,333
1097,2	0,133
1097,6	-8,267
1098	-6,867
1098,4	-12,067
1098,8	-3,467
1099,2	-25,467
1099,6	7,133
1100,1	8,933
1100,5	8,133
1100,9	2,733
1101,3	1,133
1101,7	9,533
1102,1	7,933
1102,5	-15,067
1102,9	8,333
1103,3	0,533
1103,7	1,933
1104,2	17,333
1104,6	-8,867
1105	5,133
1105,4	3,933
1105,8	15,333
1106,2	8,933
1106,6	0,933
1107	0,533
1107,4	-1,867
1107,8	0,533
1108,3	0,333
