Data from Subt2_00008.txt Node
Date: Wed Aug 02 18:57:49 MSK 2023
User: vat
Spectrometer: MAYP114033
Trigger mode: 0
Integration Time (sec): 7,000000E-1
Scans to average: 5
Electric dark correction enabled: true
Nonlinearity correction enabled: false
Boxcar width: 0
XAxis mode: Wavelengths
Number of Pixels in Spectrum: 2068
>>>>>Begin Spectral Data<<<<<
199,4	-2,933
199,9	-1,333
200,4	0,667
200,8	-0,533
201,3	8,267
201,8	-19,733
202,2	-8,533
202,7	7,867
203,2	33,667
203,6	11,467
204,1	-16,933
204,6	-13,733
205	-10,533
205,5	-10,533
206	-1,333
206,4	21,467
206,9	0,867
207,4	12,467
207,8	3,267
208,3	15,067
208,8	-9,333
209,2	2,467
209,7	-6,733
210,2	-13,733
210,6	1,067
211,1	10,467
211,5	0,267
212	18,867
212,5	12,667
212,9	-11,933
213,4	-2,733
213,9	1,867
214,3	-23,533
214,8	8,067
215,3	9,267
215,7	-7,933
216,2	0,867
216,7	4,667
217,1	-11,933
217,6	8,067
218,1	20,067
218,5	8,067
219	16,267
219,5	7,467
219,9	-1,133
220,4	-3,733
220,9	-2,933
221,3	23,067
221,8	12,467
222,3	-9,333
222,7	10,467
223,2	-0,533
223,6	30,067
224,1	7,067
224,6	18,267
225	1,467
225,5	12,867
226	10,667
226,4	-4,933
226,9	-12,733
227,4	-8,733
227,8	33,067
228,3	11,267
228,8	21,467
229,2	3,667
229,7	49,867
230,2	3,467
230,6	50,267
231,1	33,067
231,5	9,667
232	29,667
232,5	22,267
232,9	6,067
233,4	-17,933
233,9	-11,333
234,3	-12,533
234,8	20,267
235,3	4,667
235,7	0,867
236,2	-11,333
236,7	20,867
237,1	-3,733
237,6	-3,333
238,1	15,067
238,5	-19,933
239	-2,533
239,4	-5,333
239,9	4,267
240,4	0,867
240,8	26,267
241,3	-31,133
241,8	10,267
242,2	-29,933
242,7	24,867
243,2	-7,333
243,6	13,267
244,1	26,467
244,6	0,267
245	6,067
245,5	-6,933
245,9	-4,133
246,4	-10,533
246,9	11,867
247,3	-16,133
247,8	29,467
248,3	7,467
248,7	0,467
249,2	-26,333
249,7	1,667
250,1	25,067
250,6	1,267
251	22,667
251,5	14,867
252	-8,133
252,4	7,267
252,9	10,667
253,4	-18,133
253,8	17,867
254,3	31,667
254,8	15,467
255,2	-33,333
255,7	16,467
256,1	-22,933
256,6	-6,933
257,1	-7,533
257,5	4,867
258	9,867
258,5	-12,133
258,9	18,667
259,4	-12,133
259,9	18,467
260,3	-19,133
260,8	21,467
261,2	10,467
261,7	2,667
262,2	11,667
262,6	2,467
263,1	20,667
263,6	-18,533
264	-17,733
264,5	10,067
264,9	-3,533
265,4	21,467
265,9	-37,333
266,3	-9,933
266,8	10,667
267,3	-10,133
267,7	13,067
268,2	1,867
268,7	27,867
269,1	14,867
269,6	-9,533
270	4,467
270,5	-22,733
271	46,467
271,4	12,267
271,9	-3,733
272,4	-5,933
272,8	19,067
273,3	-6,733
273,7	-4,133
274,2	-13,133
274,7	36,467
275,1	22,867
275,6	-2,133
276,1	29,267
276,5	21,467
277	-2,133
277,4	1,267
277,9	-30,733
278,4	-1,333
278,8	1,867
279,3	1,467
279,8	-10,733
280,2	11,467
280,7	19,667
281,1	-4,933
281,6	-14,333
282,1	7,667
282,5	8,067
283	15,867
283,4	34,867
283,9	10,067
284,4	-44,933
284,8	13,267
285,3	-26,933
285,8	-0,333
286,2	8,267
286,7	23,067
287,1	-34,133
287,6	-16,533
288,1	-28,733
288,5	10,667
289	8,267
289,5	14,667
289,9	2,067
290,4	-18,733
290,8	-5,533
291,3	0,867
291,8	-12,933
292,2	-0,733
292,7	-6,933
293,1	15,467
293,6	11,467
294,1	2,467
294,5	-0,333
295	50,067
295,5	-0,733
295,9	-4,733
296,4	24,067
296,8	-14,733
297,3	-17,733
297,8	12,067
298,2	15,867
298,7	12,667
299,1	6,467
299,6	22,267
300,1	16,667
300,5	-18,933
301	-0,533
301,5	-35,333
301,9	-19,733
302,4	3,467
302,8	1,067
303,3	-17,533
303,8	7,467
304,2	4,667
304,7	21,667
305,1	-13,333
305,6	6,067
306,1	-12,933
306,5	36,667
307	-8,133
307,4	-42,933
307,9	25,867
308,4	-7,333
308,8	-6,933
309,3	11,667
309,8	-4,533
310,2	-16,133
310,7	-5,533
311,1	-24,333
311,6	-7,333
312,1	9,267
312,5	-60,133
313	-45,133
313,4	17,267
313,9	5,467
314,4	0,267
314,8	0,467
315,3	-24,733
315,7	11,267
316,2	43,267
316,7	9,867
317,1	26,867
317,6	21,867
318	-13,533
318,5	-2,333
319	28,867
319,4	-23,533
319,9	-17,133
320,3	-9,333
320,8	-6,333
321,3	-1,533
321,7	-3,933
322,2	10,867
322,6	7,267
323,1	15,467
323,6	15,467
324	-6,333
324,5	34,467
324,9	12,067
325,4	15,667
325,9	-10,733
326,3	-28,333
326,8	10,267
327,2	-22,933
327,7	-31,133
328,2	28,267
328,6	20,267
329,1	36,867
329,5	7,867
330	22,467
330,5	-3,533
330,9	32,467
331,4	-6,133
331,8	0,467
332,3	-26,933
332,8	10,867
333,2	-17,133
333,7	13,267
334,1	15,867
334,6	1,667
335,1	0,467
335,5	9,267
336	8,067
336,4	23,067
336,9	10,867
337,4	-0,333
337,8	-5,533
338,3	-23,333
338,7	10,667
339,2	7,467
339,7	21,867
340,1	6,667
340,6	7,467
341	2,867
341,5	1,867
342	33,267
342,4	-7,133
342,9	7,267
343,3	36,667
343,8	-10,533
344,2	11,867
344,7	-5,533
345,2	7,467
345,6	-8,333
346,1	6,067
346,5	3,067
347	-19,333
347,5	14,667
347,9	15,067
348,4	16,667
348,8	25,067
349,3	-2,133
349,8	28,267
350,2	-1,533
350,7	35,067
351,1	54,667
351,6	37,267
352	11,467
352,5	47,667
353	40,867
353,4	40,067
353,9	80,067
354,3	91,267
354,8	124,467
355,3	150,467
355,7	168,867
356,2	235,067
356,6	238,667
357,1	312,667
357,5	336,667
358	437,267
358,5	484,467
358,9	586,267
359,4	653,067
359,8	751,667
360,3	930,667
360,8	1017,467
361,2	1173,067
361,7	1339,067
362,1	1474,267
362,6	1722,867
363	1935,667
363,5	2117,467
364	2393,067
364,4	2622,867
364,9	2858,267
365,3	3095,267
365,8	3332,667
366,3	3548,467
366,7	3724,067
367,2	3895,867
367,6	4023,667
368,1	4116,667
368,5	4129,667
369	4177,667
369,5	4197,867
369,9	4120,867
370,4	4044,267
370,8	3938,467
371,3	3829,267
371,7	3717,867
372,2	3516,667
372,7	3311,067
373,1	3151,867
373,6	2946,467
374	2736,267
374,5	2506,467
374,9	2337,867
375,4	2172,067
375,9	1984,667
376,3	1864,267
376,8	1656,667
377,2	1536,867
377,7	1406,067
378,2	1314,467
378,6	1212,267
379,1	1043,467
379,5	969,467
380	889,267
380,4	817,467
380,9	742,267
381,4	666,267
381,8	628,467
382,3	574,067
382,7	523,067
383,2	478,267
383,6	450,467
384,1	427,467
384,6	379,467
385	339,667
385,5	316,267
385,9	282,267
386,4	291,867
386,8	257,467
387,3	276,267
387,7	238,267
388,2	209,067
388,7	193,067
389,1	184,867
389,6	142,867
390	155,267
390,5	136,067
390,9	149,267
391,4	100,267
391,9	117,467
392,3	101,267
392,8	75,867
393,2	101,267
393,7	98,467
394,1	88,467
394,6	85,067
395,1	74,667
395,5	91,667
396	50,067
396,4	37,867
396,9	72,067
397,3	34,267
397,8	65,267
398,2	51,267
398,7	38,467
399,2	29,867
399,6	67,467
400,1	31,467
400,5	26,067
401	24,267
401,4	47,467
401,9	31,667
402,4	-16,533
402,8	35,467
403,3	38,667
403,7	30,667
404,2	34,267
404,6	37,667
405,1	6,667
405,5	34,667
406	5,467
406,5	25,667
406,9	31,667
407,4	31,667
407,8	8,067
408,3	6,667
408,7	38,267
409,2	26,467
409,6	17,267
410,1	-18,933
410,6	-5,533
411	14,867
411,5	17,867
411,9	5,467
412,4	40,667
412,8	3,867
413,3	18,467
413,7	22,667
414,2	18,867
414,7	42,067
415,1	23,267
415,6	14,867
416	39,667
416,5	49,467
416,9	27,667
417,4	45,667
417,8	60,267
418,3	28,267
418,8	36,067
419,2	10,067
419,7	80,467
420,1	41,667
420,6	7,267
421	30,067
421,5	47,667
421,9	58,067
422,4	31,467
422,8	56,467
423,3	43,267
423,8	24,267
424,2	64,067
424,7	32,867
425,1	35,067
425,6	21,667
426	83,867
426,5	17,067
426,9	35,467
427,4	35,267
427,9	54,067
428,3	53,667
428,8	66,267
429,2	43,467
429,7	73,467
430,1	32,867
430,6	26,267
431	70,467
431,5	55,267
431,9	53,467
432,4	5,067
432,8	36,267
433,3	32,267
433,8	70,867
434,2	28,667
434,7	40,067
435,1	25,867
435,6	15,467
436	29,867
436,5	32,267
436,9	14,867
437,4	33,667
437,8	19,667
438,3	39,067
438,8	62,067
439,2	42,467
439,7	24,467
440,1	13,267
440,6	38,667
441	1,867
441,5	20,867
441,9	10,067
442,4	46,867
442,8	30,067
443,3	21,667
443,7	33,267
444,2	19,667
444,7	38,267
445,1	49,667
445,6	43,067
446	43,667
446,5	64,667
446,9	63,067
447,4	53,267
447,8	34,867
448,3	14,067
448,7	31,267
449,2	30,267
449,6	22,667
450,1	63,067
450,6	8,267
451	21,067
451,5	29,467
451,9	15,867
452,4	13,467
452,8	19,667
453,3	15,067
453,7	2,667
454,2	20,067
454,6	14,467
455,1	15,067
455,5	29,667
456	41,867
456,4	30,667
456,9	39,667
457,3	26,267
457,8	40,467
458,3	35,867
458,7	24,667
459,2	21,467
459,6	30,267
460,1	5,867
460,5	44,267
461	33,067
461,4	29,467
461,9	25,667
462,3	39,867
462,8	85,267
463,2	12,267
463,7	26,067
464,1	22,667
464,6	29,867
465	9,067
465,5	47,867
466	26,867
466,4	39,867
466,9	36,067
467,3	19,667
467,8	32,067
468,2	18,867
468,7	13,667
469,1	21,667
469,6	9,667
470	-2,333
470,5	15,267
470,9	34,267
471,4	23,467
471,8	19,867
472,3	24,667
472,7	-7,533
473,2	38,067
473,6	29,267
474,1	-1,933
474,5	22,667
475	45,067
475,4	22,867
475,9	25,467
476,4	1,667
476,8	55,067
477,3	5,667
477,7	36,067
478,2	29,067
478,6	16,467
479,1	26,667
479,5	32,667
480	27,667
480,4	21,267
480,9	21,067
481,3	-1,333
481,8	17,667
482,2	-2,133
482,7	18,067
483,1	13,067
483,6	36,867
484	33,267
484,5	11,867
484,9	-12,733
485,4	-10,533
485,8	-18,733
486,3	35,667
486,7	19,667
487,2	28,467
487,6	2,867
488,1	-8,333
488,5	13,067
489	29,267
489,4	10,867
489,9	34,867
490,4	0,267
490,8	24,867
491,3	10,667
491,7	37,067
492,2	29,067
492,6	3,867
493,1	15,867
493,5	-6,933
494	15,867
494,4	35,467
494,9	7,267
495,3	22,867
495,8	-7,733
496,2	-4,333
496,7	27,067
497,1	16,067
497,6	16,867
498	11,467
498,5	5,467
498,9	14,467
499,4	22,667
499,8	26,667
500,3	35,467
500,7	19,467
501,2	14,867
501,6	-9,333
502,1	16,667
502,5	18,667
503	6,667
503,4	21,267
503,9	2,067
504,3	18,267
504,8	60,067
505,2	-14,133
505,7	8,267
506,1	7,667
506,6	5,267
507	8,667
507,5	-2,933
507,9	11,467
508,4	-15,133
508,8	39,467
509,3	14,867
509,7	33,267
510,2	13,867
510,6	-8,933
511,1	9,067
511,5	-1,933
512	9,667
512,4	21,267
512,9	1,467
513,3	-16,933
513,8	8,067
514,2	15,267
514,7	30,867
515,1	46,867
515,6	32,667
516	19,467
516,5	0,667
516,9	28,467
517,4	19,467
517,8	-22,533
518,3	0,867
518,7	20,067
519,2	17,667
519,6	4,867
520,1	5,267
520,5	24,467
521	7,667
521,4	11,067
521,9	19,267
522,3	29,067
522,8	48,867
523,2	43,467
523,7	-2,333
524,1	33,467
524,6	11,667
525	0,867
525,5	1,067
525,9	-0,333
526,4	26,667
526,8	39,067
527,3	-9,933
527,7	12,667
528,2	1,267
528,6	7,267
529,1	25,067
529,5	46,467
530	31,667
530,4	13,467
530,9	40,067
531,3	0,467
531,8	10,067
532,2	25,867
532,6	14,467
533,1	-7,133
533,5	24,067
534	-9,533
534,4	43,267
534,9	6,467
535,3	25,667
535,8	29,467
536,2	15,467
536,7	-5,733
537,1	29,067
537,6	26,667
538	29,667
538,5	-8,333
538,9	9,067
539,4	-13,933
539,8	19,867
540,3	0,067
540,7	5,067
541,2	23,667
541,6	2,467
542,1	28,467
542,5	7,667
543	-31,333
543,4	18,067
543,9	-3,533
544,3	20,267
544,8	-5,533
545,2	-10,533
545,7	44,267
546,1	-15,933
546,5	23,267
547	10,067
547,4	1,467
547,9	15,867
548,3	30,667
548,8	17,667
549,2	6,067
549,7	17,467
550,1	-2,133
550,6	20,267
551	52,467
551,5	21,867
551,9	6,867
552,4	-4,133
552,8	31,067
553,3	-9,733
553,7	3,467
554,2	15,467
554,6	3,267
555,1	-20,533
555,5	17,067
555,9	-12,933
556,4	10,667
556,8	15,267
557,3	-1,533
557,7	6,867
558,2	29,867
558,6	17,267
559,1	-14,533
559,5	17,867
560	-2,933
560,4	22,267
560,9	0,467
561,3	19,067
561,8	10,667
562,2	0,067
562,7	-11,533
563,1	-4,933
563,6	16,067
564	34,067
564,4	14,867
564,9	7,467
565,3	8,267
565,8	16,467
566,2	3,867
566,7	30,267
567,1	6,467
567,6	16,667
568	8,067
568,5	-13,333
568,9	5,067
569,4	36,067
569,8	-3,733
570,3	-8,733
570,7	27,267
571,1	35,667
571,6	21,067
572	12,067
572,5	19,267
572,9	-8,533
573,4	3,267
573,8	26,867
574,3	2,067
574,7	8,267
575,2	9,467
575,6	28,867
576,1	40,467
576,5	14,667
576,9	14,667
577,4	13,067
577,8	-3,933
578,3	6,667
578,7	1,267
579,2	66,467
579,6	5,667
580,1	23,667
580,5	12,867
581	4,067
581,4	-18,933
581,9	19,467
582,3	8,867
582,7	-2,333
583,2	0,467
583,6	18,867
584,1	18,467
584,5	23,067
585	4,467
585,4	3,067
585,9	18,067
586,3	-14,733
586,8	36,867
587,2	18,267
587,6	11,467
588,1	-11,333
588,5	6,467
589	6,667
589,4	0,467
589,9	3,267
590,3	-15,733
590,8	-3,733
591,2	34,867
591,7	-4,533
592,1	35,267
592,5	23,067
593	-9,533
593,4	28,467
593,9	6,867
594,3	9,067
594,8	-27,933
595,2	33,667
595,7	-0,533
596,1	0,267
596,6	-19,533
597	2,867
597,4	-4,733
597,9	-5,133
598,3	16,067
598,8	1,467
599,2	-1,333
599,7	-10,733
600,1	16,667
600,6	9,667
601	11,067
601,4	12,867
601,9	14,867
602,3	19,867
602,8	-3,733
603,2	-2,333
603,7	4,867
604,1	49,867
604,6	11,467
605	18,667
605,4	-2,733
605,9	23,067
606,3	1,267
606,8	-11,333
607,2	17,267
607,7	-15,733
608,1	13,467
608,6	-13,733
609	6,467
609,4	25,867
609,9	30,067
610,3	-3,333
610,8	10,667
611,2	6,467
611,7	-5,733
612,1	11,467
612,6	1,067
613	7,267
613,4	13,467
613,9	17,667
614,3	19,067
614,8	28,467
615,2	-10,333
615,7	-1,133
616,1	5,467
616,6	0,467
617	-9,933
617,4	26,867
617,9	19,667
618,3	47,267
618,8	15,267
619,2	-1,733
619,7	1,067
620,1	16,867
620,5	20,867
621	12,667
621,4	19,467
621,9	3,467
622,3	14,667
622,8	20,267
623,2	2,067
623,6	17,467
624,1	-7,933
624,5	15,867
625	-9,333
625,4	11,867
625,9	-27,933
626,3	-0,533
626,8	19,867
627,2	-2,733
627,6	0,267
628,1	8,467
628,5	-8,133
629	9,267
629,4	19,467
629,9	26,267
630,3	-22,733
630,7	12,667
631,2	26,667
631,6	-0,733
632,1	7,667
632,5	-3,733
633	0,267
633,4	13,667
633,8	-6,133
634,3	23,067
634,7	1,467
635,2	6,467
635,6	10,667
636,1	5,867
636,5	5,067
636,9	-21,533
637,4	-3,133
637,8	13,467
638,3	-32,333
638,7	15,267
639,2	-30,133
639,6	-10,733
640	10,067
640,5	-23,333
640,9	11,267
641,4	10,267
641,8	-30,533
642,2	20,067
642,7	-6,933
643,1	3,467
643,6	23,467
644	-12,733
644,5	37,467
644,9	4,667
645,3	35,867
645,8	-0,133
646,2	23,267
646,7	22,467
647,1	4,067
647,6	18,667
648	23,667
648,4	15,067
648,9	6,267
649,3	41,667
649,8	48,467
650,2	27,267
650,6	-22,533
651,1	-6,933
651,5	-17,333
652	-17,733
652,4	17,667
652,9	4,667
653,3	-12,133
653,7	10,067
654,2	13,467
654,6	17,067
655,1	16,667
655,5	38,467
655,9	-0,533
656,4	-19,533
656,8	7,467
657,3	25,667
657,7	18,067
658,2	9,267
658,6	34,267
659	10,867
659,5	31,867
659,9	3,667
660,4	20,467
660,8	-22,333
661,2	19,867
661,7	-25,333
662,1	-11,533
662,6	-28,133
663	41,267
663,4	27,667
663,9	11,667
664,3	10,467
664,8	-2,133
665,2	-0,533
665,6	-1,933
666,1	8,467
666,5	-7,933
667	-9,733
667,4	-2,933
667,9	3,667
668,3	-9,533
668,7	16,267
669,2	-2,733
669,6	48,467
670,1	0,667
670,5	8,267
670,9	-10,533
671,4	-5,933
671,8	2,467
672,3	28,267
672,7	-16,333
673,1	18,667
673,6	22,267
674	-13,533
674,5	-3,933
674,9	-6,733
675,3	14,467
675,8	39,667
676,2	-11,133
676,7	15,467
677,1	5,467
677,5	-23,533
678	-13,333
678,4	-4,533
678,9	17,267
679,3	3,067
679,7	22,467
680,2	1,667
680,6	36,667
681,1	28,267
681,5	13,467
681,9	-11,933
682,4	2,867
682,8	-25,533
683,3	3,667
683,7	-9,333
684,1	-2,333
684,6	10,067
685	6,067
685,5	-9,533
685,9	7,267
686,3	27,867
686,8	-21,933
687,2	2,267
687,7	-10,133
688,1	-13,733
688,5	4,867
689	-14,133
689,4	-14,533
689,9	11,467
690,3	5,667
690,7	-2,533
691,2	1,267
691,6	51,067
692	17,667
692,5	-0,533
692,9	12,667
693,4	-4,333
693,8	14,267
694,2	2,667
694,7	-2,733
695,1	-4,533
695,6	-18,733
696	-6,133
696,4	3,267
696,9	-4,933
697,3	7,467
697,8	-3,333
698,2	-5,133
698,6	20,467
699,1	13,067
699,5	0,067
699,9	9,867
700,4	3,267
700,8	-5,533
701,3	12,667
701,7	-18,533
702,1	6,067
702,6	6,067
703	-4,933
703,5	8,467
703,9	-5,733
704,3	21,467
704,8	-16,733
705,2	21,667
705,6	11,867
706,1	-4,533
706,5	1,667
707	21,467
707,4	-19,133
707,8	-1,533
708,3	10,867
708,7	23,067
709,2	15,067
709,6	-28,733
710	17,867
710,5	-9,333
710,9	-26,733
711,3	-16,333
711,8	-2,333
712,2	5,867
712,7	17,867
713,1	7,067
713,5	6,667
714	17,267
714,4	-0,933
714,8	-17,133
715,3	22,467
715,7	-8,133
716,2	12,667
716,6	7,867
717	15,267
717,5	7,067
717,9	3,067
718,3	-14,533
718,8	0,867
719,2	7,667
719,7	6,667
720,1	13,267
720,5	-7,933
721	16,467
721,4	-5,333
721,8	-9,333
722,3	-6,733
722,7	5,867
723,2	8,467
723,6	-6,333
724	-1,733
724,5	-1,533
724,9	4,867
725,3	13,467
725,8	18,067
726,2	-32,933
726,7	-0,333
727,1	-7,933
727,5	-22,333
728	5,467
728,4	4,667
728,8	22,267
729,3	41,067
729,7	5,867
730,1	9,067
730,6	-7,333
731	-15,333
731,5	-12,733
731,9	14,467
732,3	-8,333
732,8	-35,533
733,2	-15,333
733,6	11,867
734,1	-5,733
734,5	-22,733
734,9	6,867
735,4	16,067
735,8	-3,533
736,3	17,867
736,7	27,267
737,1	-3,533
737,6	-4,933
738	-1,333
738,4	-6,733
738,9	-12,533
739,3	20,867
739,7	2,867
740,2	11,667
740,6	20,267
741,1	-20,133
741,5	3,667
741,9	18,267
742,4	1,467
742,8	4,467
743,2	13,267
743,7	8,867
744,1	9,667
744,5	0,867
745	-16,733
745,4	-5,333
745,8	2,467
746,3	4,867
746,7	-2,533
747,2	18,267
747,6	-9,333
748	-30,933
748,5	17,467
748,9	26,267
749,3	3,067
749,8	7,267
750,2	4,067
750,6	-22,133
751,1	24,867
751,5	-12,533
751,9	-3,733
752,4	13,867
752,8	-6,733
753,3	23,267
753,7	33,267
754,1	7,267
754,6	-7,133
755	14,667
755,4	-7,333
755,9	-4,333
756,3	-16,133
756,7	33,667
757,2	28,067
757,6	-28,533
758	-4,333
758,5	0,867
758,9	8,267
759,3	-7,933
759,8	11,267
760,2	-12,133
760,6	8,667
761,1	-8,333
761,5	-15,933
761,9	16,667
762,4	-15,133
762,8	4,067
763,3	-9,533
763,7	-7,133
764,1	-10,933
764,6	-29,733
765	3,867
765,4	23,667
765,9	7,867
766,3	-11,933
766,7	-10,133
767,2	31,867
767,6	-21,333
768	15,067
768,5	-14,533
768,9	-6,733
769,3	1,867
769,8	-9,333
770,2	10,467
770,6	13,867
771,1	18,467
771,5	-17,933
771,9	14,067
772,4	-4,533
772,8	-15,333
773,2	-29,333
773,7	8,067
774,1	-23,333
774,5	13,667
775	22,667
775,4	15,067
775,8	1,067
776,3	11,467
776,7	-4,933
777,1	-9,533
777,6	6,467
778	0,067
778,4	7,467
778,9	5,867
779,3	-11,333
779,7	15,467
780,2	16,667
780,6	12,267
781	-13,533
781,5	8,467
781,9	-10,533
782,3	-6,933
782,8	-18,133
783,2	-6,533
783,6	7,267
784,1	-2,933
784,5	9,067
784,9	-10,133
785,4	2,867
785,8	-2,333
786,2	-5,733
786,7	-15,133
787,1	-8,933
787,5	3,467
788	-23,533
788,4	8,067
788,8	-6,333
789,3	20,267
789,7	25,867
790,1	12,267
790,6	3,267
791	-12,933
791,4	3,467
791,9	17,467
792,3	-7,533
792,7	-1,533
793,2	5,267
793,6	15,467
794	-19,533
794,5	24,667
794,9	7,667
795,3	2,067
795,8	2,867
796,2	6,067
796,6	31,267
797,1	2,867
797,5	5,867
797,9	-2,133
798,4	-7,133
798,8	2,867
799,2	-5,333
799,7	1,667
800,1	-8,533
800,5	22,667
801	5,067
801,4	8,067
801,8	-0,933
802,2	-17,333
802,7	-9,733
803,1	5,467
803,5	-18,133
804	20,067
804,4	-8,533
804,8	13,067
805,3	-7,133
805,7	2,867
806,1	-7,133
806,6	-6,333
807	5,467
807,4	-16,533
807,9	30,467
808,3	4,267
808,7	9,267
809,2	-18,133
809,6	-7,933
810	-3,533
810,4	18,467
810,9	0,467
811,3	25,267
811,7	20,267
812,2	-12,533
812,6	9,267
813	-3,533
813,5	-0,533
813,9	-13,733
814,3	18,267
814,8	3,467
815,2	-3,533
815,6	-3,533
816,1	26,267
816,5	8,467
816,9	11,067
817,3	4,867
817,8	-17,733
818,2	-9,133
818,6	5,867
819,1	-0,933
819,5	-8,333
819,9	-23,333
820,4	9,867
820,8	2,867
821,2	8,667
821,7	27,867
822,1	-25,533
822,5	23,067
822,9	18,267
823,4	8,067
823,8	-17,333
824,2	6,267
824,7	-0,533
825,1	-18,533
825,5	-24,933
826	1,667
826,4	-11,733
826,8	19,267
827,3	-3,933
827,7	-16,333
828,1	6,467
828,5	8,267
829	9,667
829,4	-4,733
829,8	-2,533
830,3	-10,133
830,7	-3,733
831,1	-2,933
831,6	-22,733
832	-14,933
832,4	25,267
832,8	-30,333
833,3	1,267
833,7	23,667
834,1	-18,733
834,6	19,467
835	13,467
835,4	16,067
835,8	7,667
836,3	30,467
836,7	11,867
837,1	-0,333
837,6	11,867
838	-14,733
838,4	16,667
838,9	10,267
839,3	-10,333
839,7	12,067
840,1	36,667
840,6	8,067
841	-13,333
841,4	-20,133
841,9	-14,933
842,3	-22,933
842,7	13,267
843,1	-15,733
843,6	14,667
844	21,467
844,4	-10,333
844,9	-0,533
845,3	-9,333
845,7	-12,933
846,2	14,067
846,6	-20,933
847	-23,333
847,4	21,067
847,9	18,467
848,3	-4,133
848,7	2,067
849,2	-9,133
849,6	7,867
850	5,667
850,4	37,267
850,9	23,867
851,3	-2,533
851,7	-17,133
852,2	3,067
852,6	35,667
853	-2,933
853,4	14,867
853,9	4,667
854,3	-14,533
854,7	-2,333
855,2	22,667
855,6	-0,133
856	-1,533
856,4	-24,533
856,9	24,067
857,3	28,067
857,7	-9,533
858,2	-1,333
858,6	-21,533
859	-17,133
859,4	37,267
859,9	-8,133
860,3	5,867
860,7	-6,533
861,1	-5,133
861,6	-9,733
862	4,867
862,4	-5,933
862,9	13,067
863,3	-22,733
863,7	-22,333
864,1	-1,933
864,6	-13,133
865	25,067
865,4	21,267
865,9	-27,333
866,3	-15,733
866,7	-17,133
867,1	-9,533
867,6	-1,133
868	14,267
868,4	-29,933
868,8	12,667
869,3	-19,933
869,7	-1,333
870,1	7,267
870,6	-13,733
871	-0,533
871,4	22,867
871,8	-3,133
872,3	362,867
872,7	-34,133
873,1	-6,533
873,5	3,267
874	-6,133
874,4	-11,933
874,8	22,267
875,3	-23,333
875,7	3,067
876,1	-10,133
876,5	2,867
877	-2,733
877,4	-19,133
877,8	1,667
878,2	1,267
878,7	11,267
879,1	19,467
879,5	-10,533
879,9	15,267
880,4	-11,133
880,8	-4,333
881,2	3,067
881,7	19,267
882,1	-2,733
882,5	10,267
882,9	18,667
883,4	27,267
883,8	-7,133
884,2	-1,133
884,6	5,667
885,1	7,467
885,5	-28,933
885,9	25,067
886,3	-6,733
886,8	-34,933
887,2	27,067
887,6	12,267
888	-3,333
888,5	-3,133
888,9	-11,933
889,3	-4,933
889,8	-2,733
890,2	-1,333
890,6	-8,133
891	9,267
891,5	-1,933
891,9	1,867
892,3	1,067
892,7	12,067
893,2	-8,533
893,6	-12,533
894	13,667
894,4	18,467
894,9	-2,133
895,3	-21,133
895,7	-1,733
896,1	-2,533
896,6	-19,133
897	-8,733
897,4	4,267
897,8	2,867
898,3	10,467
898,7	1,467
899,1	19,067
899,5	6,267
900	-6,733
900,4	25,867
900,8	22,067
901,2	-13,133
901,7	1,467
902,1	4,867
902,5	-12,733
902,9	-12,933
903,4	16,467
903,8	12,667
904,2	2,867
904,6	13,667
905,1	-9,733
905,5	25,267
905,9	23,867
906,3	-6,533
906,8	-13,333
907,2	27,467
907,6	-9,533
908	-14,533
908,5	21,467
908,9	-11,533
909,3	0,667
909,7	22,867
910,2	17,467
910,6	3,467
911	-12,733
911,4	17,067
911,9	8,667
912,3	0,867
912,7	-1,133
913,1	-23,533
913,6	-11,133
914	5,667
914,4	26,867
914,8	17,667
915,3	18,867
915,7	13,067
916,1	5,467
916,5	8,867
916,9	26,267
917,4	-9,333
917,8	24,867
918,2	1,267
918,6	21,667
919,1	13,267
919,5	12,467
919,9	-14,333
920,3	-7,733
920,8	-23,133
921,2	6,267
921,6	-20,533
922	-7,933
922,5	4,267
922,9	-31,533
923,3	-9,133
923,7	29,067
924,2	17,267
924,6	3,667
925	28,067
925,4	19,267
925,8	-9,533
926,3	21,667
926,7	-2,133
927,1	-13,133
927,5	-11,133
928	-14,133
928,4	21,667
928,8	-14,933
929,2	-3,533
929,7	3,067
930,1	-10,133
930,5	-7,133
930,9	-28,933
931,3	10,667
931,8	12,467
932,2	-5,133
932,6	17,667
933	30,267
933,5	-2,533
933,9	10,867
934,3	-26,133
934,7	2,067
935,2	5,667
935,6	-6,533
936	-17,733
936,4	2,467
936,8	19,267
937,3	-35,133
937,7	12,867
938,1	11,067
938,5	-6,133
939	-6,333
939,4	19,667
939,8	-15,133
940,2	24,267
940,6	14,267
941,1	13,667
941,5	-20,933
941,9	-30,733
942,3	23,867
942,8	18,467
943,2	-13,733
943,6	-0,733
944	-4,533
944,4	-23,133
944,9	15,467
945,3	7,067
945,7	-13,133
946,1	-10,133
946,6	-33,933
947	8,467
947,4	8,667
947,8	-30,133
948,2	-0,333
948,7	21,067
949,1	-6,933
949,5	-7,333
949,9	25,467
950,3	-4,933
950,8	-17,133
951,2	-3,933
951,6	13,467
952	-10,733
952,5	13,267
952,9	-2,133
953,3	27,467
953,7	5,467
954,1	-10,133
954,6	20,067
955	-8,133
955,4	-26,333
955,8	46,467
956,2	15,867
956,7	40,067
957,1	11,867
957,5	0,267
957,9	15,067
958,3	3,867
958,8	18,667
959,2	-10,333
959,6	-19,133
960	0,667
960,5	-6,933
960,9	15,467
961,3	0,867
961,7	8,867
962,1	-1,333
962,6	-21,933
963	16,667
963,4	19,267
963,8	-10,733
964,2	29,867
964,7	-13,733
965,1	-39,733
965,5	7,467
965,9	-13,333
966,3	-11,133
966,8	3,067
967,2	-41,333
967,6	0,067
968	-8,933
968,4	-5,733
968,9	11,667
969,3	6,667
969,7	16,267
970,1	30,867
970,5	-23,733
971	4,267
971,4	-0,733
971,8	-13,533
972,2	16,667
972,6	8,867
973,1	-12,533
973,5	15,267
973,9	3,067
974,3	-9,133
974,7	-1,133
975,2	0,067
975,6	-8,933
976	-1,333
976,4	-14,533
976,8	7,667
977,3	22,467
977,7	6,067
978,1	37,067
978,5	16,667
978,9	9,867
979,4	32,467
979,8	-19,733
980,2	20,467
980,6	13,667
981	-19,933
981,5	-16,933
981,9	8,267
982,3	37,667
982,7	16,467
983,1	-5,733
983,6	-14,333
984	2,067
984,4	-13,133
984,8	-6,933
985,2	24,867
985,6	-0,533
986,1	-12,533
986,5	-6,733
986,9	25,267
987,3	9,467
987,7	1,667
988,2	-1,933
988,6	23,867
989	-8,333
989,4	-43,333
989,8	-0,733
990,3	-8,933
990,7	49,067
991,1	-6,533
991,5	31,267
991,9	3,667
992,3	6,067
992,8	-23,533
993,2	15,067
993,6	-23,933
994	-8,533
994,4	19,467
994,9	4,067
995,3	-15,733
995,7	-4,333
996,1	-8,133
996,5	-2,133
996,9	-0,933
997,4	-14,733
997,8	10,867
998,2	-45,333
998,6	-12,133
999	21,867
999,5	2,267
999,9	-3,733
1000,3	26,867
1000,7	2,067
1001,1	9,267
1001,5	-6,333
1002	15,467
1002,4	41,067
1002,8	19,267
1003,2	24,067
1003,6	-8,933
1004	-16,333
1004,5	-2,533
1004,9	10,867
1005,3	-14,533
1005,7	-6,533
1006,1	23,867
1006,6	-15,533
1007	27,267
1007,4	10,067
1007,8	30,667
1008,2	-3,333
1008,6	-8,533
1009,1	1,067
1009,5	-13,533
1009,9	19,267
1010,3	-3,933
1010,7	10,467
1011,1	-3,333
1011,6	-2,733
1012	3,667
1012,4	-1,933
1012,8	-33,733
1013,2	4,467
1013,6	-19,933
1014,1	-19,533
1014,5	6,467
1014,9	19,467
1015,3	4,467
1015,7	0,667
1016,1	5,867
1016,6	11,467
1017	18,267
1017,4	17,667
1017,8	-0,333
1018,2	15,067
1018,6	-7,533
1019,1	-0,333
1019,5	22,667
1019,9	3,867
1020,3	-28,933
1020,7	28,467
1021,1	-1,333
1021,6	-7,533
1022	-12,133
1022,4	8,867
1022,8	11,067
1023,2	1,267
1023,6	-5,533
1024,1	-4,933
1024,5	-1,733
1024,9	7,267
1025,3	25,867
1025,7	27,267
1026,1	33,667
1026,6	-17,333
1027	-9,933
1027,4	9,067
1027,8	6,067
1028,2	-24,333
1028,6	45,867
1029	14,267
1029,5	-0,533
1029,9	28,867
1030,3	-19,933
1030,7	-2,533
1031,1	-32,133
1031,5	2,467
1032	1,067
1032,4	-12,133
1032,8	-18,933
1033,2	-4,933
1033,6	25,667
1034	1,067
1034,4	25,467
1034,9	11,067
1035,3	29,067
1035,7	15,667
1036,1	5,667
1036,5	14,267
1036,9	2,867
1037,4	-12,733
1037,8	-10,133
1038,2	34,467
1038,6	-9,333
1039	-7,533
1039,4	20,867
1039,8	-49,733
1040,3	11,467
1040,7	-2,133
1041,1	26,467
1041,5	-2,133
1041,9	69,667
1042,3	31,467
1042,7	20,467
1043,2	-29,333
1043,6	9,267
1044	6,267
1044,4	25,067
1044,8	0,867
1045,2	-21,733
1045,6	19,867
1046,1	8,067
1046,5	21,867
1046,9	13,867
1047,3	-2,333
1047,7	-6,133
1048,1	-6,733
1048,5	-27,733
1049	-21,733
1049,4	-2,733
1049,8	1,867
1050,2	-6,733
1050,6	6,667
1051	22,667
1051,4	-0,133
1051,9	19,467
1052,3	-7,333
1052,7	-31,133
1053,1	10,067
1053,5	-6,533
1053,9	-22,933
1054,3	-5,733
1054,8	11,267
1055,2	1,867
1055,6	10,467
1056	-6,133
1056,4	-45,933
1056,8	-13,533
1057,2	-20,133
1057,6	3,867
1058,1	-23,533
1058,5	-12,733
1058,9	-17,933
1059,3	-12,133
1059,7	-13,933
1060,1	-4,733
1060,5	-3,533
1061	1,667
1061,4	25,267
1061,8	51,067
1062,2	-5,533
1062,6	3,467
1063	-4,533
1063,4	34,667
1063,8	-24,733
1064,3	-4,933
1064,7	-42,733
1065,1	19,667
1065,5	10,867
1065,9	15,067
1066,3	22,867
1066,7	-23,333
1067,1	-9,533
1067,6	27,067
1068	-13,733
1068,4	-3,133
1068,8	-29,933
1069,2	12,067
1069,6	22,867
1070	-8,333
1070,4	-14,933
1070,9	2,667
1071,3	25,267
1071,7	-14,133
1072,1	-11,533
1072,5	5,067
1072,9	12,467
1073,3	18,867
1073,7	9,067
1074,2	17,267
1074,6	15,467
1075	23,667
1075,4	-13,333
1075,8	35,267
1076,2	-20,533
1076,6	7,467
1077	-7,933
1077,5	0,867
1077,9	8,067
1078,3	-9,133
1078,7	21,667
1079,1	8,067
1079,5	-11,933
1079,9	37,067
1080,3	-17,733
1080,7	-0,733
1081,2	14,667
1081,6	-0,733
1082	-14,533
1082,4	1,267
1082,8	7,067
1083,2	6,867
1083,6	5,467
1084	7,667
1084,5	-46,533
1084,9	-0,133
1085,3	5,267
1085,7	-2,933
1086,1	-12,733
1086,5	-1,733
1086,9	-2,533
1087,3	16,267
1087,7	2,467
1088,2	14,867
1088,6	-3,133
1089	6,067
1089,4	-9,733
1089,8	-26,533
1090,2	-28,333
1090,6	5,267
1091	13,667
1091,4	8,467
1091,9	1,067
1092,3	11,267
1092,7	-8,133
1093,1	0,667
1093,5	-10,333
1093,9	-5,133
1094,3	-7,333
1094,7	-4,933
1095,1	-0,533
1095,5	21,867
1096	-8,133
1096,4	-2,333
1096,8	-13,133
1097,2	22,467
1097,6	2,267
1098	3,267
1098,4	-35,533
1098,8	9,267
1099,2	-36,133
1099,6	18,067
1100,1	12,867
1100,5	-5,533
1100,9	-11,533
1101,3	-17,333
1101,7	3,667
1102,1	12,667
1102,5	-3,533
1102,9	3,467
1103,3	4,867
1103,7	-2,933
1104,2	32,667
1104,6	2,867
1105	11,867
1105,4	21,067
1105,8	12,667
1106,2	11,467
1106,6	8,267
1107	1,067
1107,4	-0,333
1107,8	0,667
1108,3	-1,533
