Data from Subt2_00019.txt Node
Date: Wed Aug 02 19:15:02 MSK 2023
User: vat
Spectrometer: MAYP114033
Trigger mode: 0
Integration Time (sec): 7,000000E-1
Scans to average: 5
Electric dark correction enabled: true
Nonlinearity correction enabled: false
Boxcar width: 0
XAxis mode: Wavelengths
Number of Pixels in Spectrum: 2068
>>>>>Begin Spectral Data<<<<<
199,4	-0,2
199,9	0
200,4	0
200,8	0,2
201,3	-14,4
201,8	-15
202,2	-1,4
202,7	9,6
203,2	9
203,6	-2
204,1	24,2
204,6	17
205	3,6
205,5	26,2
206	15,8
206,4	-29,2
206,9	20,8
207,4	5,8
207,8	-7,2
208,3	11
208,8	6,8
209,2	31,2
209,7	-4,8
210,2	21
210,6	-9
211,1	33,6
211,5	6
212	2,8
212,5	14,4
212,9	9,8
213,4	-12,8
213,9	14,6
214,3	11,8
214,8	17,4
215,3	27,6
215,7	-2,4
216,2	-3,4
216,7	15
217,1	15,8
217,6	-2,2
218,1	39
218,5	14,4
219	16,2
219,5	25
219,9	-8,8
220,4	32,8
220,9	-27,2
221,3	8,4
221,8	-19
222,3	-8
222,7	-5,4
223,2	-0,8
223,6	-6
224,1	7,4
224,6	8
225	7,8
225,5	-7,6
226	4,2
226,4	-19
226,9	8,6
227,4	-18
227,8	11,6
228,3	4,6
228,8	15,8
229,2	-10,4
229,7	11,4
230,2	12
230,6	-12,4
231,1	5
231,5	-14,6
232	15,8
232,5	15,8
232,9	7,8
233,4	-6,8
233,9	14,2
234,3	22,4
234,8	52,6
235,3	15
235,7	49
236,2	6,6
236,7	8,6
237,1	12,6
237,6	-15
238,1	10
238,5	20,8
239	13,8
239,4	-27,4
239,9	-11
240,4	15
240,8	9,2
241,3	-18,6
241,8	20,4
242,2	-4,8
242,7	36,2
243,2	16
243,6	17,2
244,1	-27,4
244,6	42,6
245	-20
245,5	9,4
245,9	-11,4
246,4	9,2
246,9	28
247,3	-5,4
247,8	6,6
248,3	-7
248,7	-5,2
249,2	31,2
249,7	-24,8
250,1	29,8
250,6	-0,4
251	19
251,5	23,6
252	25,2
252,4	39,6
252,9	-7,8
253,4	-6
253,8	20,4
254,3	4,6
254,8	-3,8
255,2	15,2
255,7	3,4
256,1	19
256,6	26,4
257,1	1,8
257,5	11,4
258	-0,6
258,5	19
258,9	-9,4
259,4	19,6
259,9	-13,6
260,3	15,4
260,8	-1,8
261,2	29,2
261,7	-7,8
262,2	6,2
262,6	11,2
263,1	39,8
263,6	29,4
264	-34,8
264,5	0,8
264,9	31
265,4	17
265,9	19,8
266,3	12,6
266,8	-1,2
267,3	15,2
267,7	7,6
268,2	12,8
268,7	-0,2
269,1	48,8
269,6	-0,8
270	3
270,5	-1,6
271	14,4
271,4	22,2
271,9	13,6
272,4	4,2
272,8	14,4
273,3	11,4
273,7	35
274,2	-2,2
274,7	0,6
275,1	20,2
275,6	17,8
276,1	1
276,5	-12,8
277	29
277,4	-3,4
277,9	-5,2
278,4	-5,4
278,8	13,6
279,3	9,8
279,8	20,2
280,2	2,8
280,7	-5
281,1	8,8
281,6	-8,8
282,1	20,2
282,5	10
283	16
283,4	8,6
283,9	38
284,4	-17,4
284,8	18
285,3	12,4
285,8	12
286,2	7
286,7	-2,4
287,1	3,6
287,6	7,6
288,1	0,6
288,5	6,6
289	15,2
289,5	17,8
289,9	30
290,4	-1,6
290,8	22,4
291,3	-17,2
291,8	4,2
292,2	6,6
292,7	21,8
293,1	10,4
293,6	14,8
294,1	20,8
294,5	-23
295	17
295,5	-26
295,9	-13,2
296,4	-3,6
296,8	9,8
297,3	-2,6
297,8	18,4
298,2	8,4
298,7	3,4
299,1	-10,2
299,6	11,2
300,1	26,6
300,5	5,6
301	-5,6
301,5	-5,6
301,9	22,2
302,4	-21,6
302,8	13,8
303,3	7,6
303,8	-10,4
304,2	1
304,7	-11,2
305,1	-7
305,6	-3,2
306,1	17,4
306,5	3,2
307	-5,2
307,4	5,4
307,9	29,4
308,4	-0,2
308,8	2
309,3	15,4
309,8	22,2
310,2	-2,8
310,7	33,6
311,1	11,6
311,6	22,4
312,1	0,8
312,5	-28
313	4,4
313,4	17,4
313,9	11,8
314,4	1,8
314,8	14,4
315,3	18,8
315,7	-12,6
316,2	-29,4
316,7	2,8
317,1	-21,4
317,6	-0,2
318	3,8
318,5	22,6
319	17,8
319,4	16,4
319,9	-16,4
320,3	11,6
320,8	9,8
321,3	-19,2
321,7	10,6
322,2	18,2
322,6	28,4
323,1	48,8
323,6	20
324	11,2
324,5	-4,2
324,9	-8
325,4	-11
325,9	34,4
326,3	24,8
326,8	17,2
327,2	23,2
327,7	5,6
328,2	8,8
328,6	32
329,1	27,4
329,5	28,8
330	-3,6
330,5	1,8
330,9	22,8
331,4	-17,2
331,8	28
332,3	2
332,8	20,6
333,2	40
333,7	20
334,1	22,8
334,6	13,6
335,1	-20,4
335,5	33,8
336	15,8
336,4	-0,8
336,9	14,2
337,4	-23
337,8	4
338,3	12,4
338,7	11,6
339,2	21,4
339,7	16,4
340,1	-1,6
340,6	27,4
341	27,4
341,5	30
342	4,8
342,4	3,2
342,9	2,4
343,3	34,2
343,8	18,6
344,2	24,4
344,7	-16,6
345,2	49,8
345,6	21,8
346,1	21,4
346,5	17,4
347	24,2
347,5	36,4
347,9	38,8
348,4	21,8
348,8	58
349,3	41,2
349,8	59,4
350,2	37
350,7	59,8
351,1	82,8
351,6	52,6
352	70,6
352,5	86,2
353	80,6
353,4	122
353,9	201
354,3	208,6
354,8	256,4
355,3	327
355,7	375,6
356,2	467
356,6	520,8
357,1	630,2
357,5	725,8
358	894,4
358,5	1025,8
358,9	1198,2
359,4	1379,2
359,8	1582,4
360,3	1829,2
360,8	2060,6
361,2	2420,8
361,7	2767,4
362,1	3072,4
362,6	3465
363	3910,2
363,5	4338
364	4866,4
364,4	5370,2
364,9	5869,4
365,3	6342,8
365,8	6818,4
366,3	7310,6
366,7	7694,4
367,2	8070,8
367,6	8284
368,1	8567,4
368,5	8708
369	8763,2
369,5	8781,4
369,9	8668,4
370,4	8504
370,8	8353,8
371,3	8067,2
371,7	7724,8
372,2	7412,6
372,7	6965,8
373,1	6640
373,6	6263
374	5787,6
374,5	5339
374,9	5026
375,4	4653
375,9	4304
376,3	3907,8
376,8	3567,2
377,2	3337,2
377,7	3025,6
378,2	2766,2
378,6	2533,2
379,1	2316
379,5	2111,2
380	1876,4
380,4	1745
380,9	1594,6
381,4	1455
381,8	1335,8
382,3	1231,2
382,7	1149,8
383,2	1060,2
383,6	970,4
384,1	892,4
384,6	871,4
385	792,2
385,5	717,6
385,9	680,2
386,4	614
386,8	569,2
387,3	532,8
387,7	498,2
388,2	451
388,7	444,6
389,1	374,6
389,6	369,6
390	331,6
390,5	324,6
390,9	267
391,4	257
391,9	216,4
392,3	232,6
392,8	229,8
393,2	212,8
393,7	201,4
394,1	168,8
394,6	160,4
395,1	147,6
395,5	156
396	159,4
396,4	131,6
396,9	123
397,3	121,8
397,8	100,8
398,2	94
398,7	91
399,2	82
399,6	109
400,1	70,2
400,5	72,8
401	86,4
401,4	80,4
401,9	88,8
402,4	75,6
402,8	45,6
403,3	43,8
403,7	52,4
404,2	79,6
404,6	94,2
405,1	24,8
405,5	33,6
406	42,4
406,5	45,4
406,9	62
407,4	46
407,8	35,4
408,3	24,4
408,7	22
409,2	52,8
409,6	33,2
410,1	32,4
410,6	43,8
411	36
411,5	35,4
411,9	83,8
412,4	42,2
412,8	48,8
413,3	63,2
413,7	41,4
414,2	73
414,7	38
415,1	59,4
415,6	39,8
416	62,4
416,5	63,6
416,9	47,8
417,4	50,2
417,8	64,6
418,3	58
418,8	53,2
419,2	48,4
419,7	59,2
420,1	61,2
420,6	59,4
421	85,4
421,5	70,2
421,9	65,8
422,4	61,6
422,8	59,6
423,3	72,4
423,8	45
424,2	65,6
424,7	84,2
425,1	89,4
425,6	115,2
426	72,2
426,5	97,6
426,9	105,6
427,4	106,2
427,9	96,6
428,3	104,6
428,8	93,4
429,2	108
429,7	94,2
430,1	113,8
430,6	138,8
431	127,2
431,5	120,8
431,9	144
432,4	134,6
432,8	154,4
433,3	128,6
433,8	135,8
434,2	182,8
434,7	145,8
435,1	165
435,6	193,4
436	174,6
436,5	211
436,9	222,6
437,4	221,6
437,8	230
438,3	228,8
438,8	265,6
439,2	236,8
439,7	275
440,1	265,8
440,6	284
441	311,6
441,5	312,2
441,9	351
442,4	319,8
442,8	323,6
443,3	366,2
443,7	365,6
444,2	360,8
444,7	391,6
445,1	396,4
445,6	418,2
446	425,4
446,5	417
446,9	472,4
447,4	482,2
447,8	492,6
448,3	483
448,7	522,4
449,2	553,6
449,6	571,6
450,1	587,4
450,6	588,8
451	612,8
451,5	619,2
451,9	647
452,4	630,6
452,8	691,6
453,3	689,2
453,7	755
454,2	797,6
454,6	774,8
455,1	811,2
455,5	862
456	836,6
456,4	866,2
456,9	901
457,3	923,2
457,8	960,2
458,3	998
458,7	1014,6
459,2	1056
459,6	1056
460,1	1085,4
460,5	1133,8
461	1149,4
461,4	1156,6
461,9	1203,2
462,3	1246,8
462,8	1248
463,2	1279,4
463,7	1330,4
464,1	1326,4
464,6	1375
465	1392,4
465,5	1416,8
466	1499
466,4	1461,4
466,9	1496,2
467,3	1548
467,8	1556
468,2	1618,6
468,7	1593,6
469,1	1634,2
469,6	1654,4
470	1681,8
470,5	1691,6
470,9	1719
471,4	1777,4
471,8	1794,4
472,3	1810,8
472,7	1799,8
473,2	1886,6
473,6	1898,2
474,1	1847,4
474,5	1931,4
475	1952,8
475,4	1973,6
475,9	1945,6
476,4	2022,2
476,8	2019,4
477,3	2051
477,7	2044,6
478,2	2072,6
478,6	2080,6
479,1	2111
479,5	2122,6
480	2129,6
480,4	2135,6
480,9	2110,4
481,3	2167
481,8	2179,4
482,2	2164,2
482,7	2164
483,1	2182,2
483,6	2185,4
484	2169,2
484,5	2214,4
484,9	2219
485,4	2246,2
485,8	2222,2
486,3	2174,8
486,7	2241,6
487,2	2186
487,6	2204,6
488,1	2252,4
488,5	2236
489	2213,4
489,4	2191,8
489,9	2242,8
490,4	2185,2
490,8	2201,8
491,3	2188,8
491,7	2196,2
492,2	2215,8
492,6	2199,8
493,1	2168,2
493,5	2189,2
494	2174
494,4	2146,2
494,9	2143,2
495,3	2190,8
495,8	2107,2
496,2	2113
496,7	2098,6
497,1	2107,8
497,6	2052,6
498	2056,2
498,5	2050,2
498,9	2040,6
499,4	2068,6
499,8	2024,4
500,3	1996,2
500,7	1988,6
501,2	1969,8
501,6	1995,6
502,1	1984,4
502,5	1954,8
503	1924,2
503,4	1910,6
503,9	1876,8
504,3	1899,8
504,8	1892,4
505,2	1880,4
505,7	1879
506,1	1841,6
506,6	1805,8
507	1781
507,5	1799,8
507,9	1788
508,4	1769,8
508,8	1763,8
509,3	1717,2
509,7	1728,6
510,2	1717,8
510,6	1693,2
511,1	1659,6
511,5	1687,8
512	1643,2
512,4	1641,4
512,9	1617,2
513,3	1590,6
513,8	1590
514,2	1537,6
514,7	1565,6
515,1	1531
515,6	1519,2
516	1494
516,5	1485,2
516,9	1469,8
517,4	1457
517,8	1484
518,3	1461
518,7	1449,2
519,2	1430,6
519,6	1360
520,1	1416,2
520,5	1376,6
521	1335,6
521,4	1340,2
521,9	1302,6
522,3	1296,8
522,8	1317
523,2	1262
523,7	1270
524,1	1281
524,6	1245,4
525	1235,4
525,5	1203,2
525,9	1170,8
526,4	1197,4
526,8	1196,2
527,3	1176,2
527,7	1152
528,2	1148,8
528,6	1132,6
529,1	1152,6
529,5	1125,2
530	1152,8
530,4	1074,2
530,9	1091,8
531,3	1100
531,8	1038,8
532,2	1058,4
532,6	1020,2
533,1	1041,8
533,5	997
534	1032,4
534,4	1031,2
534,9	984,6
535,3	984,8
535,8	990,6
536,2	968,8
536,7	930,8
537,1	920,6
537,6	957,2
538	932,4
538,5	922,6
538,9	938,4
539,4	901,6
539,8	886,2
540,3	889,8
540,7	879,4
541,2	852,2
541,6	844,8
542,1	872,4
542,5	827,4
543	861,6
543,4	843,2
543,9	820
544,3	814
544,8	826,8
545,2	843,4
545,7	793,2
546,1	793,4
546,5	765,4
547	749,6
547,4	789,6
547,9	751,8
548,3	731,8
548,8	728,2
549,2	758,6
549,7	756
550,1	748,4
550,6	729,4
551	732,4
551,5	709,8
551,9	705
552,4	669,6
552,8	690,4
553,3	645,4
553,7	702,2
554,2	681,6
554,6	675,2
555,1	695,2
555,5	684,6
555,9	678,8
556,4	667,6
556,8	647,4
557,3	661,4
557,7	632,4
558,2	633,2
558,6	639,2
559,1	666,8
559,5	636,4
560	636,6
560,4	614,8
560,9	624,6
561,3	598,4
561,8	623,4
562,2	617,2
562,7	592,8
563,1	585,6
563,6	566,4
564	555,4
564,4	556,2
564,9	547,4
565,3	588,6
565,8	557,6
566,2	568,6
566,7	535,6
567,1	548,6
567,6	538,2
568	547
568,5	544,8
568,9	540
569,4	531
569,8	529,8
570,3	532,4
570,7	506
571,1	526
571,6	522,6
572	493,2
572,5	493,8
572,9	502,4
573,4	522,8
573,8	466
574,3	483,6
574,7	466,4
575,2	502,4
575,6	458,4
576,1	442,2
576,5	452,4
576,9	475,6
577,4	477,8
577,8	441,2
578,3	473,4
578,7	466,8
579,2	432
579,6	433,2
580,1	463,6
580,5	455
581	448
581,4	457,6
581,9	439
582,3	431
582,7	422,6
583,2	397,6
583,6	446,2
584,1	425
584,5	437
585	435,6
585,4	420,4
585,9	386,2
586,3	391
586,8	421,8
587,2	407,8
587,6	386,8
588,1	409
588,5	375,4
589	374,2
589,4	378,4
589,9	388,4
590,3	357,8
590,8	376,4
591,2	391,6
591,7	363,4
592,1	408,6
592,5	370
593	355,6
593,4	403,4
593,9	351,2
594,3	352,4
594,8	361,6
595,2	348,4
595,7	353,4
596,1	378,4
596,6	343,6
597	369
597,4	396,2
597,9	347,4
598,3	328,8
598,8	318,4
599,2	308,8
599,7	351,8
600,1	301,6
600,6	302,4
601	350,8
601,4	355,8
601,9	335,8
602,3	356
602,8	343,6
603,2	312,4
603,7	321,8
604,1	316
604,6	317,4
605	310
605,4	318,4
605,9	331,6
606,3	338,6
606,8	321,2
607,2	336,4
607,7	296,8
608,1	305,4
608,6	306,4
609	296,4
609,4	302
609,9	314,4
610,3	292
610,8	328,2
611,2	284
611,7	265,8
612,1	284,8
612,6	312,6
613	276
613,4	279
613,9	285,8
614,3	268,6
614,8	280,8
615,2	263,2
615,7	284,8
616,1	299,4
616,6	276,4
617	309
617,4	273,2
617,9	272,6
618,3	286,4
618,8	265,6
619,2	240,2
619,7	283,6
620,1	271,4
620,5	256,4
621	251
621,4	249,6
621,9	260,4
622,3	242,4
622,8	257,4
623,2	273
623,6	259,8
624,1	252,8
624,5	277,4
625	248,8
625,4	253,8
625,9	246,4
626,3	222,2
626,8	235,8
627,2	210,6
627,6	235,6
628,1	246
628,5	249,6
629	232,6
629,4	247,4
629,9	222,8
630,3	221,6
630,7	213,2
631,2	207,4
631,6	238,6
632,1	238,4
632,5	212,4
633	211
633,4	227,4
633,8	223,6
634,3	197,6
634,7	226,4
635,2	213,4
635,6	209,4
636,1	175,4
636,5	203,2
636,9	208
637,4	205,4
637,8	188,4
638,3	202,6
638,7	194,4
639,2	172,2
639,6	199,6
640	188,2
640,5	225,8
640,9	200,2
641,4	179,2
641,8	205,6
642,2	196
642,7	190,6
643,1	193,4
643,6	138,8
644	191,4
644,5	171,2
644,9	184,8
645,3	211
645,8	197,8
646,2	196,6
646,7	190,6
647,1	169,2
647,6	161,6
648	198
648,4	154,8
648,9	127,6
649,3	190
649,8	168,6
650,2	176,8
650,6	158,8
651,1	165,6
651,5	203,4
652	153
652,4	193,8
652,9	197,6
653,3	160,6
653,7	154,4
654,2	159
654,6	166,8
655,1	151
655,5	177,6
655,9	126,8
656,4	195,2
656,8	149,6
657,3	164
657,7	163,8
658,2	165,8
658,6	147,4
659	120,6
659,5	119,4
659,9	125
660,4	142,6
660,8	134,2
661,2	144,6
661,7	136,4
662,1	172,4
662,6	152,6
663	158,8
663,4	141,2
663,9	128,8
664,3	133,4
664,8	138,8
665,2	148
665,6	126
666,1	144,2
666,5	118,8
667	149,6
667,4	157,2
667,9	135
668,3	89,8
668,7	153,8
669,2	140
669,6	137,6
670,1	123,2
670,5	144
670,9	131,2
671,4	139
671,8	127,6
672,3	164,8
672,7	116
673,1	138
673,6	124
674	149,2
674,5	112,8
674,9	152
675,3	125,6
675,8	101,2
676,2	124,2
676,7	118
677,1	83,4
677,5	131,8
678	111,6
678,4	145,2
678,9	128,2
679,3	122,4
679,7	128
680,2	127,2
680,6	123,2
681,1	158,4
681,5	118,4
681,9	117
682,4	115
682,8	108,2
683,3	108,6
683,7	94
684,1	113
684,6	139
685	100,8
685,5	100,4
685,9	110
686,3	115,8
686,8	90,8
687,2	97,2
687,7	109
688,1	74,4
688,5	122,6
689	106,4
689,4	98
689,9	116,2
690,3	120,2
690,7	108
691,2	105
691,6	84,8
692	88,8
692,5	109,2
692,9	148,6
693,4	98,2
693,8	123,6
694,2	102,4
694,7	138,8
695,1	109,6
695,6	94,4
696	94,2
696,4	71,6
696,9	120,2
697,3	72,8
697,8	98,8
698,2	99
698,6	81,8
699,1	86,8
699,5	89,6
699,9	85,2
700,4	92
700,8	95,6
701,3	118,8
701,7	74,4
702,1	103,4
702,6	99
703	119,8
703,5	121,2
703,9	122,6
704,3	70
704,8	69,8
705,2	87,2
705,6	107
706,1	81
706,5	110,6
707	88,6
707,4	66
707,8	72,6
708,3	75,2
708,7	96
709,2	81,4
709,6	109,6
710	81,8
710,5	70
710,9	106,8
711,3	72,8
711,8	69
712,2	96,4
712,7	73
713,1	99,2
713,5	90,4
714	86,8
714,4	62
714,8	83,6
715,3	81,8
715,7	76,2
716,2	61,6
716,6	67,6
717	77
717,5	73
717,9	85,6
718,3	58,2
718,8	65,2
719,2	107,8
719,7	56,4
720,1	97,8
720,5	44,6
721	59,2
721,4	100
721,8	70,2
722,3	55
722,7	80,4
723,2	100,4
723,6	81,4
724	67
724,5	52
724,9	54,8
725,3	75,2
725,8	87,2
726,2	84
726,7	97,2
727,1	62,8
727,5	88,6
728	69,2
728,4	61,8
728,8	68,6
729,3	45,2
729,7	86,2
730,1	66
730,6	94,6
731	73,6
731,5	59,4
731,9	66
732,3	64,2
732,8	33,4
733,2	47,4
733,6	47,2
734,1	67,6
734,5	87,6
734,9	49,8
735,4	47,8
735,8	52,8
736,3	56,6
736,7	86,2
737,1	47,6
737,6	60,2
738	39,6
738,4	50,2
738,9	61,8
739,3	65,4
739,7	55,2
740,2	70
740,6	69
741,1	89
741,5	65,6
741,9	59,2
742,4	72,4
742,8	61
743,2	60,8
743,7	43,8
744,1	41
744,5	41,4
745	26
745,4	92,6
745,8	36,2
746,3	38
746,7	71,2
747,2	71,4
747,6	51
748	65,8
748,5	68
748,9	84,4
749,3	74
749,8	53
750,2	73,4
750,6	58,4
751,1	48
751,5	65,4
751,9	40,4
752,4	62,6
752,8	59,8
753,3	62
753,7	45,8
754,1	50
754,6	65,6
755	51,6
755,4	46,6
755,9	76,4
756,3	27
756,7	37,8
757,2	73,6
757,6	74,2
758	24,8
758,5	36,6
758,9	47,2
759,3	51,2
759,8	69,8
760,2	78,4
760,6	51,8
761,1	31,8
761,5	28,6
761,9	71,6
762,4	41,4
762,8	16,2
763,3	82,2
763,7	71,2
764,1	57,8
764,6	32,6
765	32
765,4	32,6
765,9	80
766,3	52,4
766,7	42,6
767,2	59,6
767,6	62,6
768	26,6
768,5	46
768,9	17,2
769,3	56,4
769,8	29,2
770,2	52
770,6	46,8
771,1	45
771,5	69,2
771,9	33,4
772,4	29,4
772,8	66,8
773,2	40,4
773,7	27,8
774,1	30,6
774,5	50,2
775	40,6
775,4	64,8
775,8	42,6
776,3	43,6
776,7	59,6
777,1	5,4
777,6	24,2
778	63
778,4	57,6
778,9	51,4
779,3	7
779,7	16,8
780,2	40,6
780,6	40,8
781	10,4
781,5	59,8
781,9	44
782,3	51
782,8	53
783,2	25
783,6	25,2
784,1	59
784,5	-0,8
784,9	22
785,4	20,2
785,8	46,6
786,2	42
786,7	11,4
787,1	75,4
787,5	35,2
788	43
788,4	34,6
788,8	19,6
789,3	52
789,7	47,6
790,1	51,6
790,6	22,2
791	41,8
791,4	25,8
791,9	74,2
792,3	50,2
792,7	68
793,2	57,8
793,6	31
794	20,8
794,5	33,2
794,9	31,4
795,3	62,2
795,8	8,6
796,2	9,6
796,6	34,6
797,1	36,6
797,5	35,6
797,9	5
798,4	34,2
798,8	30
799,2	33
799,7	30,6
800,1	45
800,5	54,6
801	27,6
801,4	42,6
801,8	41,8
802,2	40,2
802,7	27,2
803,1	41
803,5	37
804	25
804,4	32,4
804,8	6,4
805,3	-5,6
805,7	3,4
806,1	-5,4
806,6	39,6
807	25,6
807,4	12,8
807,9	40,4
808,3	17,8
808,7	19,6
809,2	1,4
809,6	26,6
810	21
810,4	6,8
810,9	3,6
811,3	55,2
811,7	33,8
812,2	11,6
812,6	38,2
813	29,6
813,5	30,4
813,9	9,2
814,3	15
814,8	30,2
815,2	31,8
815,6	23,4
816,1	26,6
816,5	42,4
816,9	31,6
817,3	10,8
817,8	25,2
818,2	7,4
818,6	21,2
819,1	33,2
819,5	9
819,9	35,4
820,4	2,8
820,8	28,2
821,2	17
821,7	8
822,1	28
822,5	34
822,9	16
823,4	35,6
823,8	33
824,2	52
824,7	2,8
825,1	24,8
825,5	-6
826	32,2
826,4	20,2
826,8	22,4
827,3	45,2
827,7	13,2
828,1	18,8
828,5	21,2
829	11
829,4	17,6
829,8	13,8
830,3	-5,4
830,7	7
831,1	31
831,6	38,6
832	43
832,4	37
832,8	35
833,3	4,8
833,7	27,8
834,1	21,8
834,6	10
835	9,4
835,4	-1,8
835,8	48
836,3	20,6
836,7	32,6
837,1	34,4
837,6	23
838	54,2
838,4	-3,2
838,9	13,4
839,3	20
839,7	24,8
840,1	24
840,6	54,8
841	25,2
841,4	-2,2
841,9	2
842,3	18,4
842,7	-6,2
843,1	18,6
843,6	13,2
844	41,6
844,4	21,6
844,9	30,6
845,3	58
845,7	17,6
846,2	10,4
846,6	37,8
847	17,6
847,4	21,2
847,9	31
848,3	9,4
848,7	13,2
849,2	35,6
849,6	19,6
850	22
850,4	35,2
850,9	20,6
851,3	18,2
851,7	14,8
852,2	23,8
852,6	8,8
853	-15
853,4	28
853,9	-5,2
854,3	9,2
854,7	-1,4
855,2	-2,8
855,6	-0,4
856	3
856,4	9
856,9	15,4
857,3	13
857,7	21,8
858,2	30,8
858,6	16,6
859	27,6
859,4	-16
859,9	-8,8
860,3	0,8
860,7	7,8
861,1	29
861,6	11,8
862	41
862,4	24,4
862,9	-12,4
863,3	17,4
863,7	33,4
864,1	9,8
864,6	11,2
865	50,2
865,4	16,6
865,9	3,4
866,3	-7,2
866,7	14
867,1	-12
867,6	17,8
868	24,4
868,4	1,6
868,8	8
869,3	27,4
869,7	21,4
870,1	9,4
870,6	20,6
871	3
871,4	37,6
871,8	4,4
872,3	463,4
872,7	-11,4
873,1	17,6
873,5	-2,4
874	10,8
874,4	31,2
874,8	17
875,3	-0,2
875,7	16,8
876,1	20,6
876,5	20,8
877	27,4
877,4	40,4
877,8	16
878,2	36,4
878,7	31,6
879,1	24,2
879,5	27,2
879,9	-10,4
880,4	15
880,8	16,6
881,2	3,8
881,7	-8,6
882,1	1,2
882,5	37,6
882,9	-21
883,4	-1,2
883,8	24,8
884,2	-10
884,6	13,2
885,1	-16,6
885,5	2,2
885,9	19,6
886,3	-2,6
886,8	14,2
887,2	0
887,6	6,8
888	5,6
888,5	20,2
888,9	51,4
889,3	39,6
889,8	9,8
890,2	9,6
890,6	-8,2
891	11,8
891,5	-5,6
891,9	8,6
892,3	6,4
892,7	16,6
893,2	-9,6
893,6	17
894	0,8
894,4	-15,6
894,9	-0,6
895,3	-16,4
895,7	46
896,1	23,6
896,6	12
897	-5,4
897,4	0,8
897,8	-8,4
898,3	-7,2
898,7	11,8
899,1	-25,4
899,5	7
900	18,4
900,4	6,4
900,8	10,6
901,2	19
901,7	3,4
902,1	-19,4
902,5	12,2
902,9	0,2
903,4	2,8
903,8	3,6
904,2	16
904,6	-18,2
905,1	13,6
905,5	-20,8
905,9	-9,4
906,3	-10,6
906,8	-14,6
907,2	6,8
907,6	-15,8
908	-2,2
908,5	7,8
908,9	8,8
909,3	4
909,7	30,8
910,2	20,6
910,6	10,2
911	-2,2
911,4	-5,2
911,9	1,2
912,3	-3
912,7	33,8
913,1	2,2
913,6	-2,8
914	-24,6
914,4	9,6
914,8	-11,4
915,3	9
915,7	7,4
916,1	39
916,5	27
916,9	2
917,4	6,6
917,8	7,2
918,2	27,6
918,6	-6,4
919,1	19
919,5	14,2
919,9	13,2
920,3	11,2
920,8	28,2
921,2	-18,4
921,6	3,4
922	23,4
922,5	-18
922,9	-3,2
923,3	16,6
923,7	14,4
924,2	21,2
924,6	-4,2
925	19,2
925,4	-4
925,8	-8,4
926,3	-21,2
926,7	15
927,1	17,4
927,5	-13,2
928	12,4
928,4	-5,6
928,8	19,2
929,2	-8,4
929,7	45
930,1	15,6
930,5	-0,2
930,9	4,6
931,3	-10
931,8	-2,2
932,2	4,6
932,6	15,4
933	-0,2
933,5	-0,6
933,9	-15,8
934,3	-15,6
934,7	9,4
935,2	19,4
935,6	-20,6
936	-4,4
936,4	-17,8
936,8	19,6
937,3	-1
937,7	-2,4
938,1	25,6
938,5	-6
939	27,6
939,4	9
939,8	-6
940,2	5,6
940,6	26,4
941,1	4,2
941,5	18
941,9	0,2
942,3	-4,2
942,8	9,2
943,2	23,6
943,6	-11,4
944	-27,2
944,4	1
944,9	10,2
945,3	8,2
945,7	-10,6
946,1	11,4
946,6	12
947	0,2
947,4	11
947,8	8
948,2	-3,8
948,7	12,6
949,1	11,8
949,5	4,2
949,9	-9,6
950,3	7,6
950,8	5,6
951,2	4,6
951,6	14,8
952	4,2
952,5	1,2
952,9	-8,4
953,3	17
953,7	10,4
954,1	33,2
954,6	2,6
955	12,6
955,4	-3,6
955,8	5
956,2	27,2
956,7	10,2
957,1	47
957,5	2
957,9	27,8
958,3	32
958,8	4
959,2	23,2
959,6	24,6
960	4,6
960,5	40,4
960,9	23,2
961,3	7,8
961,7	6,2
962,1	-9,8
962,6	3,2
963	9
963,4	9,2
963,8	-3,8
964,2	19,8
964,7	32,2
965,1	33,6
965,5	2,4
965,9	26,4
966,3	-20,2
966,8	28
967,2	17,2
967,6	8,6
968	-7,6
968,4	7,6
968,9	15,6
969,3	-5,8
969,7	-12
970,1	-21,2
970,5	4,6
971	34,2
971,4	-6,4
971,8	11
972,2	-4,6
972,6	9,8
973,1	-13,6
973,5	-10,8
973,9	12,2
974,3	12,6
974,7	16,2
975,2	2,4
975,6	-8,4
976	13,6
976,4	-10,8
976,8	15,6
977,3	4,2
977,7	14,8
978,1	14,4
978,5	13,4
978,9	-5,8
979,4	1
979,8	17,4
980,2	14,8
980,6	-12,4
981	0,4
981,5	-3,4
981,9	10
982,3	20,6
982,7	12
983,1	-2,4
983,6	-9,2
984	2,2
984,4	-7,4
984,8	10,8
985,2	-28
985,6	34,8
986,1	-32
986,5	-19,6
986,9	28,2
987,3	5
987,7	2,8
988,2	9,4
988,6	7,6
989	-2
989,4	-17,8
989,8	6,6
990,3	15
990,7	2,2
991,1	28,2
991,5	17
991,9	6,2
992,3	-21,4
992,8	-5,4
993,2	2,6
993,6	8,2
994	3,8
994,4	-15,2
994,9	-40
995,3	2,6
995,7	-6,4
996,1	29,6
996,5	15,2
996,9	11,6
997,4	2,4
997,8	9
998,2	-35
998,6	1,2
999	32,6
999,5	-0,6
999,9	25,8
1000,3	1
1000,7	8,6
1001,1	-14,2
1001,5	-20
1002	1,8
1002,4	-9,4
1002,8	5
1003,2	19,8
1003,6	20,2
1004	34,6
1004,5	17,4
1004,9	20,4
1005,3	10,2
1005,7	-18,2
1006,1	12,2
1006,6	35
1007	-7,2
1007,4	7,8
1007,8	-7,6
1008,2	13,2
1008,6	-14
1009,1	10,8
1009,5	-5,8
1009,9	-10,6
1010,3	-16,2
1010,7	1,6
1011,1	27,2
1011,6	9
1012	15,4
1012,4	18,8
1012,8	7,2
1013,2	-9,2
1013,6	19,2
1014,1	21
1014,5	22,4
1014,9	4,2
1015,3	10,4
1015,7	2,6
1016,1	-15,4
1016,6	-7,4
1017	-4,6
1017,4	12,6
1017,8	7,2
1018,2	-9,2
1018,6	-3,6
1019,1	50,8
1019,5	27,8
1019,9	13,4
1020,3	23,6
1020,7	-6,2
1021,1	5,4
1021,6	10,6
1022	27,6
1022,4	-4,8
1022,8	-15,8
1023,2	-10,6
1023,6	-22
1024,1	-16,4
1024,5	10
1024,9	15,6
1025,3	5
1025,7	-3
1026,1	-5,2
1026,6	-11,6
1027	-2
1027,4	35,2
1027,8	-10,6
1028,2	7,6
1028,6	7,8
1029	18,4
1029,5	-9,6
1029,9	17
1030,3	-5
1030,7	17,2
1031,1	7,6
1031,5	39,8
1032	9,2
1032,4	1,4
1032,8	7
1033,2	29
1033,6	27,4
1034	19,8
1034,4	-16,2
1034,9	4,2
1035,3	34,4
1035,7	8,6
1036,1	0,2
1036,5	41
1036,9	7,6
1037,4	7,2
1037,8	-14
1038,2	-16,2
1038,6	-3,8
1039	5,4
1039,4	-0,2
1039,8	-29
1040,3	16,2
1040,7	-4,6
1041,1	32,8
1041,5	-25,8
1041,9	23,2
1042,3	-8,6
1042,7	21
1043,2	-2,4
1043,6	-20,2
1044	-11,8
1044,4	25,8
1044,8	51,4
1045,2	6,4
1045,6	20,2
1046,1	3
1046,5	3,8
1046,9	5,2
1047,3	-30
1047,7	-17
1048,1	3
1048,5	34,4
1049	-8,8
1049,4	-1,2
1049,8	7
1050,2	40,6
1050,6	20,6
1051	-34
1051,4	-22
1051,9	32,8
1052,3	19,6
1052,7	-26,6
1053,1	6,6
1053,5	-5,2
1053,9	-15,4
1054,3	-5
1054,8	2,6
1055,2	-23,6
1055,6	-27,8
1056	47,2
1056,4	-5,4
1056,8	36,2
1057,2	20
1057,6	-1,8
1058,1	-25,2
1058,5	-19
1058,9	-5
1059,3	13
1059,7	10,4
1060,1	11
1060,5	-37,2
1061	24,2
1061,4	5,4
1061,8	-7,4
1062,2	7
1062,6	-1,4
1063	14,2
1063,4	25,2
1063,8	26
1064,3	9,8
1064,7	-2
1065,1	31,2
1065,5	10,4
1065,9	26,4
1066,3	-13,2
1066,7	5,6
1067,1	40,4
1067,6	9,2
1068	28,2
1068,4	16,8
1068,8	6,2
1069,2	-2,4
1069,6	-21,8
1070	12,6
1070,4	2,8
1070,9	15,6
1071,3	-1,8
1071,7	40,2
1072,1	7,6
1072,5	11,4
1072,9	26,6
1073,3	51
1073,7	19,8
1074,2	-8,8
1074,6	-16
1075	-5,6
1075,4	30
1075,8	9,4
1076,2	-7,8
1076,6	6,6
1077	-16
1077,5	-0
1077,9	-3,2
1078,3	-2,6
1078,7	7,2
1079,1	23,2
1079,5	30,6
1079,9	27,4
1080,3	17
1080,7	16,6
1081,2	-3
1081,6	-13,8
1082	19,2
1082,4	10,8
1082,8	-8,8
1083,2	-7,8
1083,6	23,2
1084	-2,6
1084,5	-18,6
1084,9	9,2
1085,3	24,8
1085,7	2,6
1086,1	7,2
1086,5	-0,4
1086,9	8,2
1087,3	-15,8
1087,7	0,6
1088,2	-21,6
1088,6	11
1089	-2,2
1089,4	15,2
1089,8	17,2
1090,2	-1,2
1090,6	-5,2
1091	-3,6
1091,4	14,4
1091,9	-23,6
1092,3	-20,8
1092,7	4,2
1093,1	11,6
1093,5	-19
1093,9	-0,8
1094,3	-4,8
1094,7	-11
1095,1	-9,4
1095,5	8,2
1096	6
1096,4	34,4
1096,8	4,2
1097,2	21,4
1097,6	0
1098	-22,4
1098,4	-24
1098,8	1,6
1099,2	18,6
1099,6	17
1100,1	-18,6
1100,5	5,8
1100,9	-17
1101,3	17,2
1101,7	5,8
1102,1	-6,2
1102,5	-8,2
1102,9	17,6
1103,3	9
1103,7	-3,8
1104,2	-2,8
1104,6	14,2
1105	3
1105,4	1,4
1105,8	-11,8
1106,2	5,4
1106,6	-0,2
1107	-2,4
1107,4	0,4
1107,8	1,8
1108,3	0
