Data from Subt2_00038.txt Node
Date: Wed Aug 02 19:45:39 MSK 2023
User: vat
Spectrometer: MAYP114033
Trigger mode: 0
Integration Time (sec): 7,000000E-1
Scans to average: 5
Electric dark correction enabled: true
Nonlinearity correction enabled: false
Boxcar width: 0
XAxis mode: Wavelengths
Number of Pixels in Spectrum: 2068
>>>>>Begin Spectral Data<<<<<
199,4	3,133
199,9	-0,067
200,4	-0,067
200,8	0,133
201,3	6,333
201,8	4,333
202,2	-30,867
202,7	4,933
203,2	2,333
203,6	-13,867
204,1	19,733
204,6	29,133
205	27,933
205,5	-14,267
206	20,333
206,4	5,533
206,9	9,933
207,4	-5,667
207,8	17,933
208,3	26,333
208,8	-7,267
209,2	11,733
209,7	-5,267
210,2	20,133
210,6	0,133
211,1	21,133
211,5	0,333
212	-9,867
212,5	24,933
212,9	-6,267
213,4	23,933
213,9	0,533
214,3	13,533
214,8	15,133
215,3	11,533
215,7	-4,067
216,2	6,733
216,7	-6,267
217,1	-11,067
217,6	-12,867
218,1	12,133
218,5	29,533
219	18,533
219,5	3,733
219,9	31,133
220,4	14,933
220,9	-0,067
221,3	-8,667
221,8	28,933
222,3	26,733
222,7	-4,467
223,2	7,533
223,6	-7,667
224,1	25,933
224,6	16,533
225	4,333
225,5	8,333
226	24,733
226,4	9,333
226,9	-2,267
227,4	2,733
227,8	34,333
228,3	13,933
228,8	4,933
229,2	5,333
229,7	24,133
230,2	1,333
230,6	-23,267
231,1	2,333
231,5	-7,867
232	-1,467
232,5	13,333
232,9	12,533
233,4	-6,267
233,9	16,533
234,3	11,133
234,8	55,933
235,3	26,133
235,7	-13,667
236,2	20,933
236,7	24,133
237,1	27,133
237,6	26,333
238,1	22,733
238,5	21,133
239	-8,267
239,4	-30,067
239,9	-6,267
240,4	-8,667
240,8	-8,467
241,3	-7,067
241,8	24,533
242,2	12,533
242,7	33,333
243,2	9,333
243,6	-13,667
244,1	-5,667
244,6	10,333
245	-1,667
245,5	26,933
245,9	2,133
246,4	11,733
246,9	13,133
247,3	15,533
247,8	10,733
248,3	-6,267
248,7	-14,867
249,2	16,133
249,7	18,533
250,1	34,533
250,6	9,533
251	-15,667
251,5	5,733
252	-12,067
252,4	-24,667
252,9	-18,867
253,4	23,133
253,8	-17,467
254,3	17,333
254,8	16,933
255,2	-0,467
255,7	2,933
256,1	4,133
256,6	24,133
257,1	-5,467
257,5	-15,667
258	24,733
258,5	6,333
258,9	-12,467
259,4	23,533
259,9	5,733
260,3	0,933
260,8	15,733
261,2	20,133
261,7	-7,667
262,2	18,333
262,6	11,533
263,1	28,733
263,6	16,333
264	25,933
264,5	25,333
264,9	24,533
265,4	14,933
265,9	13,333
266,3	-1,267
266,8	-4,667
267,3	0,533
267,7	34,733
268,2	6,333
268,7	13,333
269,1	2,933
269,6	28,133
270	-7,267
270,5	17,133
271	8,933
271,4	-10,467
271,9	16,133
272,4	-4,067
272,8	1,533
273,3	45,133
273,7	23,133
274,2	9,133
274,7	-12,267
275,1	-0,667
275,6	-26,867
276,1	9,933
276,5	22,333
277	-7,267
277,4	15,333
277,9	4,333
278,4	-6,667
278,8	27,733
279,3	14,133
279,8	33,733
280,2	15,133
280,7	29,133
281,1	9,533
281,6	-28,467
282,1	20,933
282,5	23,933
283	-3,067
283,4	2,933
283,9	29,333
284,4	12,933
284,8	13,933
285,3	-25,267
285,8	8,733
286,2	-6,667
286,7	12,733
287,1	27,333
287,6	23,933
288,1	24,733
288,5	-1,067
289	-13,267
289,5	14,333
289,9	3,933
290,4	19,933
290,8	1,933
291,3	12,533
291,8	5,733
292,2	-17,667
292,7	22,733
293,1	-6,467
293,6	-12,267
294,1	11,333
294,5	10,533
295	0,733
295,5	9,733
295,9	5,933
296,4	22,333
296,8	-7,267
297,3	22,333
297,8	3,533
298,2	45,533
298,7	-2,667
299,1	-4,067
299,6	-8,867
300,1	9,733
300,5	0,333
301	22,533
301,5	-2,667
301,9	17,333
302,4	-39,867
302,8	-22,467
303,3	-5,667
303,8	1,933
304,2	1,533
304,7	-0,667
305,1	-0,067
305,6	-0,667
306,1	-8,267
306,5	19,733
307	4,933
307,4	-17,467
307,9	-19,267
308,4	-27,667
308,8	-22,667
309,3	5,333
309,8	-0,467
310,2	-24,267
310,7	15,333
311,1	42,133
311,6	30,333
312,1	19,133
312,5	28,733
313	-14,467
313,4	11,933
313,9	-11,867
314,4	2,533
314,8	34,133
315,3	15,533
315,7	5,333
316,2	29,533
316,7	-3,067
317,1	1,333
317,6	24,733
318	14,333
318,5	-12,667
319	19,733
319,4	-7,067
319,9	19,133
320,3	-1,667
320,8	6,133
321,3	-18,467
321,7	23,733
322,2	5,533
322,6	-14,667
323,1	8,933
323,6	14,133
324	6,933
324,5	3,933
324,9	24,133
325,4	19,733
325,9	-17,067
326,3	-21,867
326,8	17,533
327,2	-1,467
327,7	11,933
328,2	27,133
328,6	27,933
329,1	9,933
329,5	23,533
330	25,933
330,5	24,933
330,9	24,133
331,4	-4,267
331,8	7,533
332,3	0,533
332,8	29,133
333,2	-23,667
333,7	11,133
334,1	3,333
334,6	15,533
335,1	-17,867
335,5	21,133
336	10,733
336,4	36,733
336,9	31,333
337,4	-0,467
337,8	10,333
338,3	3,733
338,7	7,733
339,2	-17,667
339,7	2,733
340,1	-25,667
340,6	12,133
341	0,733
341,5	-7,867
342	-9,867
342,4	-17,067
342,9	32,733
343,3	29,333
343,8	13,133
344,2	0,733
344,7	45,333
345,2	-7,867
345,6	30,733
346,1	5,133
346,5	27,133
347	0,733
347,5	27,133
347,9	-3,067
348,4	-10,267
348,8	10,133
349,3	10,333
349,8	12,133
350,2	8,733
350,7	28,333
351,1	-1,867
351,6	-17,267
352	52,933
352,5	15,533
353	35,533
353,4	11,733
353,9	33,533
354,3	-2,867
354,8	34,333
355,3	27,733
355,7	51,933
356,2	35,533
356,6	34,733
357,1	44,333
357,5	73,733
358	73,933
358,5	78,133
358,9	95,733
359,4	116,133
359,8	149,333
360,3	116,133
360,8	105,133
361,2	176,533
361,7	182,133
362,1	208,133
362,6	239,133
363	292,333
363,5	327,133
364	348,533
364,4	385,133
364,9	446,133
365,3	488,533
365,8	512,333
366,3	535,733
366,7	606,733
367,2	632,733
367,6	643,733
368,1	651,133
368,5	642,933
369	658,133
369,5	706,333
369,9	679,333
370,4	680,933
370,8	667,533
371,3	637,733
371,7	608,533
372,2	596,533
372,7	569,733
373,1	505,133
373,6	506,133
374	464,933
374,5	433,733
374,9	429,333
375,4	388,733
375,9	338,933
376,3	373,733
376,8	322,133
377,2	290,133
377,7	231,533
378,2	251,133
378,6	214,133
379,1	192,733
379,5	184,733
380	152,733
380,4	172,533
380,9	139,333
381,4	115,333
381,8	161,733
382,3	116,333
382,7	108,533
383,2	120,733
383,6	118,933
384,1	64,733
384,6	115,533
385	65,933
385,5	33,933
385,9	65,333
386,4	59,733
386,8	69,533
387,3	55,333
387,7	63,533
388,2	67,733
388,7	39,133
389,1	63,133
389,6	38,933
390	62,933
390,5	50,333
390,9	39,133
391,4	59,733
391,9	25,533
392,3	49,533
392,8	13,733
393,2	21,133
393,7	33,133
394,1	48,333
394,6	23,333
395,1	36,733
395,5	44,733
396	30,533
396,4	39,133
396,9	23,533
397,3	65,133
397,8	32,333
398,2	56,933
398,7	47,333
399,2	22,133
399,6	23,333
400,1	29,533
400,5	54,733
401	24,533
401,4	35,533
401,9	18,333
402,4	58,133
402,8	49,533
403,3	55,933
403,7	39,533
404,2	33,533
404,6	37,133
405,1	52,733
405,5	34,333
406	51,333
406,5	47,133
406,9	84,333
407,4	49,333
407,8	32,933
408,3	49,133
408,7	52,933
409,2	45,333
409,6	72,333
410,1	46,533
410,6	70,933
411	71,933
411,5	60,133
411,9	54,133
412,4	107,733
412,8	75,733
413,3	102,933
413,7	97,533
414,2	74,533
414,7	70,333
415,1	82,733
415,6	44,533
416	75,933
416,5	43,933
416,9	132,333
417,4	61,733
417,8	107,533
418,3	81,333
418,8	120,533
419,2	87,733
419,7	124,533
420,1	95,533
420,6	98,533
421	132,733
421,5	146,533
421,9	97,733
422,4	120,733
422,8	138,733
423,3	128,733
423,8	138,133
424,2	142,133
424,7	159,533
425,1	151,333
425,6	162,533
426	170,733
426,5	191,533
426,9	189,533
427,4	176,733
427,9	206,333
428,3	183,533
428,8	232,333
429,2	199,333
429,7	207,333
430,1	220,733
430,6	262,933
431	256,533
431,5	233,133
431,9	271,733
432,4	285,333
432,8	279,533
433,3	318,133
433,8	307,933
434,2	314,733
434,7	347,333
435,1	328,733
435,6	362,533
436	385,133
436,5	376,733
436,9	353,733
437,4	427,733
437,8	427,733
438,3	481,733
438,8	436,933
439,2	479,933
439,7	515,733
440,1	519,133
440,6	538,933
441	545,733
441,5	581,733
441,9	574,133
442,4	638,733
442,8	626,533
443,3	685,533
443,7	667,133
444,2	663,733
444,7	699,733
445,1	736,533
445,6	779,933
446	827,133
446,5	864,533
446,9	860,133
447,4	889,733
447,8	911,333
448,3	958,133
448,7	963,333
449,2	1003,133
449,6	1000,933
450,1	1047,933
450,6	1105,333
451	1129,733
451,5	1151,733
451,9	1176,533
452,4	1237,733
452,8	1246,733
453,3	1295,533
453,7	1285,733
454,2	1378,133
454,6	1408,733
455,1	1407,133
455,5	1470,133
456	1513,933
456,4	1521,733
456,9	1562,133
457,3	1608,533
457,8	1629,333
458,3	1690,733
458,7	1700,133
459,2	1776,933
459,6	1788,133
460,1	1847,133
460,5	1851,533
461	1884,533
461,4	1937,933
461,9	2003,933
462,3	2032,533
462,8	2076,933
463,2	2086,333
463,7	2147,733
464,1	2166,933
464,6	2212,333
465	2228,733
465,5	2226,533
466	2357,933
466,4	2368,933
466,9	2408,733
467,3	2413,133
467,8	2469,333
468,2	2529,533
468,7	2548,733
469,1	2568,933
469,6	2577,533
470	2646,133
470,5	2694,733
470,9	2700,733
471,4	2721,733
471,8	2754,933
472,3	2781,533
472,7	2829,133
473,2	2845,533
473,6	2889,533
474,1	2849,933
474,5	2912,133
475	2948,333
475,4	2975,333
475,9	2985,133
476,4	3016,933
476,8	3047,733
477,3	3062,133
477,7	3095,133
478,2	3114,133
478,6	3172,533
479,1	3148,933
479,5	3171,533
480	3234,933
480,4	3185,733
480,9	3253,733
481,3	3259,333
481,8	3235,333
482,2	3284,133
482,7	3307,333
483,1	3267,733
483,6	3286,133
484	3310,533
484,5	3353,533
484,9	3358,133
485,4	3339,533
485,8	3377,333
486,3	3374,133
486,7	3335,333
487,2	3362,533
487,6	3384,733
488,1	3408,933
488,5	3391,533
489	3411,733
489,4	3401,933
489,9	3403,333
490,4	3441,133
490,8	3392,333
491,3	3386,533
491,7	3408,733
492,2	3374,133
492,6	3415,533
493,1	3396,533
493,5	3396,333
494	3387,733
494,4	3343,133
494,9	3391,733
495,3	3355,933
495,8	3383,333
496,2	3344,933
496,7	3358,933
497,1	3352,333
497,6	3319,733
498	3296,933
498,5	3305,533
498,9	3287,733
499,4	3303,733
499,8	3255,533
500,3	3270,933
500,7	3263,133
501,2	3245,733
501,6	3250,933
502,1	3199,133
502,5	3214,533
503	3195,333
503,4	3205,933
503,9	3175,733
504,3	3197,333
504,8	3148,933
505,2	3138,533
505,7	3137,533
506,1	3156,933
506,6	3095,733
507	3096,733
507,5	3080,933
507,9	3004,733
508,4	3003,533
508,8	3042,733
509,3	3011,733
509,7	2993,733
510,2	2964,733
510,6	3014,333
511,1	2962,133
511,5	2927,333
512	2936,333
512,4	2907,733
512,9	2890,333
513,3	2882,333
513,8	2831,733
514,2	2815,133
514,7	2861,733
515,1	2800,333
515,6	2766,733
516	2790,933
516,5	2775,133
516,9	2763,733
517,4	2738,533
517,8	2682,933
518,3	2684,933
518,7	2643,133
519,2	2682,733
519,6	2600,733
520,1	2623,733
520,5	2619,333
521	2610,933
521,4	2555,533
521,9	2567,933
522,3	2553,333
522,8	2538,533
523,2	2540,333
523,7	2527,133
524,1	2496,533
524,6	2448,133
525	2497,333
525,5	2423,733
525,9	2434,933
526,4	2430,133
526,8	2418,133
527,3	2390,533
527,7	2417,933
528,2	2388,533
528,6	2326,733
529,1	2287,133
529,5	2342,533
530	2280,333
530,4	2322,933
530,9	2297,933
531,3	2280,733
531,8	2253,133
532,2	2233,933
532,6	2239,133
533,1	2227,533
533,5	2242,333
534	2186,933
534,4	2183,533
534,9	2237,533
535,3	2150,133
535,8	2111,933
536,2	2143,933
536,7	2124,333
537,1	2054,933
537,6	2086,933
538	2110,133
538,5	2093,133
538,9	2044,533
539,4	2071,933
539,8	2068,533
540,3	2060,133
540,7	2004,333
541,2	2065,533
541,6	1996,133
542,1	2012,333
542,5	1975,533
543	2000,933
543,4	1978,533
543,9	1963,533
544,3	1966,733
544,8	1976,533
545,2	1932,333
545,7	1950,933
546,1	1935,933
546,5	1901,133
547	1918,933
547,4	1862,333
547,9	1883,733
548,3	1878,133
548,8	1891,733
549,2	1876,933
549,7	1862,533
550,1	1854,733
550,6	1865,533
551	1839,733
551,5	1847,533
551,9	1818,533
552,4	1764,933
552,8	1785,333
553,3	1831,733
553,7	1800,533
554,2	1800,333
554,6	1793,333
555,1	1792,533
555,5	1738,533
555,9	1767,533
556,4	1744,533
556,8	1749,533
557,3	1754,133
557,7	1741,133
558,2	1724,533
558,6	1725,333
559,1	1704,133
559,5	1706,933
560	1732,333
560,4	1694,933
560,9	1677,133
561,3	1703,933
561,8	1684,333
562,2	1686,933
562,7	1692,933
563,1	1699,333
563,6	1664,333
564	1651,933
564,4	1651,733
564,9	1653,933
565,3	1665,933
565,8	1634,133
566,2	1641,733
566,7	1645,733
567,1	1614,933
567,6	1588,933
568	1630,133
568,5	1602,533
568,9	1612,533
569,4	1579,933
569,8	1581,733
570,3	1568,133
570,7	1593,733
571,1	1566,133
571,6	1586,133
572	1564,133
572,5	1533,333
572,9	1580,933
573,4	1547,733
573,8	1529,133
574,3	1522,933
574,7	1506,933
575,2	1525,133
575,6	1498,533
576,1	1483,933
576,5	1472,333
576,9	1485,933
577,4	1471,933
577,8	1470,533
578,3	1494,533
578,7	1455,333
579,2	1480,533
579,6	1470,333
580,1	1463,133
580,5	1468,133
581	1434,333
581,4	1457,133
581,9	1454,533
582,3	1396,733
582,7	1451,333
583,2	1402,533
583,6	1397,733
584,1	1394,733
584,5	1388,133
585	1363,533
585,4	1394,533
585,9	1421,733
586,3	1393,333
586,8	1341,933
587,2	1325,133
587,6	1363,533
588,1	1331,933
588,5	1364,733
589	1313,533
589,4	1312,933
589,9	1294,333
590,3	1290,933
590,8	1292,533
591,2	1314,533
591,7	1288,933
592,1	1317,933
592,5	1274,133
593	1299,533
593,4	1314,333
593,9	1252,133
594,3	1263,133
594,8	1253,333
595,2	1266,333
595,7	1257,133
596,1	1233,533
596,6	1268,733
597	1230,333
597,4	1232,733
597,9	1236,133
598,3	1222,133
598,8	1217,133
599,2	1238,333
599,7	1192,133
600,1	1231,733
600,6	1175,733
601	1206,333
601,4	1246,333
601,9	1177,133
602,3	1167,733
602,8	1149,733
603,2	1188,333
603,7	1106,933
604,1	1133,333
604,6	1174,133
605	1184,533
605,4	1147,133
605,9	1146,533
606,3	1123,533
606,8	1105,533
607,2	1106,333
607,7	1112,533
608,1	1131,733
608,6	1102,333
609	1077,733
609,4	1095,333
609,9	1061,733
610,3	1101,533
610,8	1062,133
611,2	1060,733
611,7	1064,933
612,1	1078,733
612,6	1039,333
613	1064,933
613,4	1089,333
613,9	1031,733
614,3	1028,133
614,8	1034,333
615,2	1030,933
615,7	990,333
616,1	1021,733
616,6	1006,933
617	1030,933
617,4	986,733
617,9	987,933
618,3	997,933
618,8	969,333
619,2	968,333
619,7	971,133
620,1	951,133
620,5	953,733
621	946,733
621,4	970,533
621,9	952,933
622,3	916,733
622,8	911,333
623,2	945,133
623,6	928,133
624,1	885,933
624,5	916,933
625	916,333
625,4	892,933
625,9	920,133
626,3	912,533
626,8	891,933
627,2	874,933
627,6	898,733
628,1	892,333
628,5	849,133
629	859,333
629,4	874,933
629,9	834,133
630,3	857,733
630,7	837,133
631,2	875,133
631,6	829,133
632,1	802,133
632,5	816,733
633	832,333
633,4	837,733
633,8	800,733
634,3	818,933
634,7	778,533
635,2	778,133
635,6	780,733
636,1	759,733
636,5	773,133
636,9	755,933
637,4	782,133
637,8	748,733
638,3	728,933
638,7	726,933
639,2	732,933
639,6	748,933
640	748,133
640,5	745,733
640,9	716,333
641,4	736,533
641,8	732,933
642,2	691,333
642,7	721,333
643,1	718,933
643,6	705,133
644	698,733
644,5	719,733
644,9	697,133
645,3	671,533
645,8	675,333
646,2	681,333
646,7	660,133
647,1	636,533
647,6	664,933
648	671,133
648,4	653,333
648,9	650,933
649,3	641,533
649,8	622,733
650,2	643,533
650,6	675,133
651,1	648,533
651,5	652,533
652	627,733
652,4	624,133
652,9	592,933
653,3	620,333
653,7	610,333
654,2	639,333
654,6	627,733
655,1	600,933
655,5	622,933
655,9	616,933
656,4	609,133
656,8	599,733
657,3	573,533
657,7	581,733
658,2	555,733
658,6	555,933
659	541,133
659,5	550,333
659,9	559,733
660,4	588,933
660,8	507,133
661,2	542,733
661,7	559,933
662,1	529,733
662,6	556,933
663	542,333
663,4	539,533
663,9	557,533
664,3	571,733
664,8	531,133
665,2	520,533
665,6	493,133
666,1	498,133
666,5	526,933
667	480,133
667,4	496,933
667,9	495,533
668,3	489,533
668,7	496,733
669,2	499,533
669,6	502,933
670,1	485,533
670,5	445,933
670,9	462,933
671,4	487,933
671,8	446,533
672,3	486,133
672,7	474,533
673,1	432,333
673,6	450,133
674	450,933
674,5	445,133
674,9	442,133
675,3	427,933
675,8	430,533
676,2	452,333
676,7	421,333
677,1	418,333
677,5	410,133
678	450,133
678,4	414,133
678,9	406,133
679,3	417,133
679,7	395,133
680,2	420,733
680,6	447,133
681,1	416,733
681,5	401,533
681,9	416,933
682,4	401,533
682,8	411,333
683,3	404,533
683,7	378,733
684,1	368,933
684,6	394,533
685	408,733
685,5	393,733
685,9	376,533
686,3	370,733
686,8	395,733
687,2	358,333
687,7	368,133
688,1	360,733
688,5	376,933
689	333,733
689,4	353,133
689,9	311,933
690,3	331,933
690,7	343,733
691,2	330,533
691,6	327,933
692	331,733
692,5	316,533
692,9	325,333
693,4	322,733
693,8	333,133
694,2	333,533
694,7	315,133
695,1	309,933
695,6	329,933
696	318,933
696,4	329,133
696,9	319,533
697,3	274,933
697,8	263,733
698,2	323,333
698,6	283,733
699,1	286,333
699,5	294,933
699,9	275,933
700,4	281,933
700,8	263,133
701,3	307,733
701,7	262,533
702,1	284,933
702,6	306,733
703	280,733
703,5	263,733
703,9	254,933
704,3	242,533
704,8	268,333
705,2	295,533
705,6	256,933
706,1	265,933
706,5	272,533
707	256,533
707,4	249,533
707,8	247,133
708,3	252,333
708,7	252,533
709,2	245,133
709,6	264,733
710	275,533
710,5	268,733
710,9	249,333
711,3	265,533
711,8	235,933
712,2	240,133
712,7	242,533
713,1	259,533
713,5	246,133
714	247,733
714,4	239,933
714,8	232,733
715,3	214,933
715,7	249,933
716,2	217,733
716,6	200,733
717	217,933
717,5	185,933
717,9	201,533
718,3	221,533
718,8	217,733
719,2	212,333
719,7	174,133
720,1	182,333
720,5	206,533
721	220,533
721,4	216,133
721,8	216,333
722,3	201,533
722,7	226,933
723,2	205,933
723,6	167,733
724	198,533
724,5	195,133
724,9	194,933
725,3	169,733
725,8	195,733
726,2	178,133
726,7	196,133
727,1	172,133
727,5	178,133
728	184,133
728,4	203,733
728,8	141,733
729,3	181,333
729,7	184,533
730,1	152,733
730,6	180,133
731	160,733
731,5	154,333
731,9	187,933
732,3	171,533
732,8	151,533
733,2	183,133
733,6	157,933
734,1	179,533
734,5	181,133
734,9	130,933
735,4	156,733
735,8	180,333
736,3	139,333
736,7	161,133
737,1	179,333
737,6	154,933
738	150,933
738,4	160,333
738,9	166,733
739,3	182,133
739,7	156,733
740,2	147,333
740,6	148,933
741,1	150,933
741,5	139,333
741,9	127,333
742,4	150,733
742,8	123,733
743,2	172,133
743,7	137,933
744,1	149,133
744,5	93,133
745	139,333
745,4	148,933
745,8	158,133
746,3	127,333
746,7	133,933
747,2	117,133
747,6	157,133
748	123,333
748,5	112,733
748,9	146,933
749,3	139,733
749,8	118,133
750,2	112,733
750,6	130,133
751,1	133,933
751,5	107,733
751,9	119,933
752,4	129,933
752,8	100,333
753,3	102,533
753,7	93,333
754,1	131,333
754,6	136,333
755	113,333
755,4	105,933
755,9	126,333
756,3	57,333
756,7	102,333
757,2	98,533
757,6	116,733
758	108,533
758,5	94,133
758,9	121,933
759,3	115,533
759,8	95,733
760,2	105,533
760,6	84,133
761,1	84,533
761,5	128,533
761,9	97,733
762,4	101,933
762,8	111,333
763,3	109,733
763,7	107,733
764,1	82,733
764,6	106,333
765	78,533
765,4	94,733
765,9	67,333
766,3	63,733
766,7	106,533
767,2	97,733
767,6	73,333
768	108,933
768,5	87,933
768,9	78,333
769,3	97,333
769,8	93,333
770,2	54,133
770,6	83,533
771,1	96,733
771,5	74,333
771,9	79,533
772,4	111,333
772,8	97,133
773,2	88,933
773,7	98,333
774,1	66,733
774,5	107,533
775	95,333
775,4	92,133
775,8	99,933
776,3	51,933
776,7	97,333
777,1	90,333
777,6	81,533
778	47,933
778,4	79,133
778,9	90,133
779,3	65,733
779,7	65,533
780,2	76,333
780,6	68,733
781	71,333
781,5	58,933
781,9	66,933
782,3	98,733
782,8	117,133
783,2	67,733
783,6	79,333
784,1	81,933
784,5	51,733
784,9	74,933
785,4	46,333
785,8	68,733
786,2	80,133
786,7	32,733
787,1	97,933
787,5	52,333
788	60,733
788,4	93,533
788,8	38,733
789,3	49,133
789,7	98,933
790,1	94,733
790,6	53,933
791	73,133
791,4	62,733
791,9	108,333
792,3	66,133
792,7	60,133
793,2	76,333
793,6	59,533
794	63,733
794,5	69,333
794,9	67,933
795,3	50,933
795,8	62,533
796,2	63,533
796,6	50,133
797,1	43,133
797,5	70,933
797,9	71,933
798,4	35,733
798,8	52,933
799,2	82,933
799,7	83,133
800,1	37,933
800,5	51,133
801	43,933
801,4	64,933
801,8	74,533
802,2	30,133
802,7	43,933
803,1	48,733
803,5	37,933
804	46,733
804,4	55,733
804,8	59,733
805,3	76,733
805,7	62,333
806,1	68,933
806,6	61,933
807	32,533
807,4	68,133
807,9	44,133
808,3	30,533
808,7	59,933
809,2	45,733
809,6	27,933
810	31,533
810,4	52,933
810,9	50,533
811,3	38,333
811,7	41,133
812,2	16,733
812,6	57,533
813	55,933
813,5	51,133
813,9	30,933
814,3	19,733
814,8	39,533
815,2	55,733
815,6	31,533
816,1	35,133
816,5	36,533
816,9	43,933
817,3	15,133
817,8	49,733
818,2	34,133
818,6	73,733
819,1	59,533
819,5	37,133
819,9	50,733
820,4	36,333
820,8	36,333
821,2	48,733
821,7	35,333
822,1	33,533
822,5	48,533
822,9	44,933
823,4	29,933
823,8	50,533
824,2	26,333
824,7	24,133
825,1	40,133
825,5	43,533
826	43,333
826,4	21,733
826,8	52,933
827,3	52,533
827,7	39,733
828,1	26,333
828,5	20,733
829	28,733
829,4	41,733
829,8	22,133
830,3	54,133
830,7	22,933
831,1	13,933
831,6	30,533
832	32,333
832,4	27,133
832,8	18,733
833,3	26,333
833,7	22,933
834,1	36,133
834,6	9,533
835	21,733
835,4	40,133
835,8	57,933
836,3	22,933
836,7	34,533
837,1	16,733
837,6	22,733
838	14,133
838,4	41,733
838,9	9,333
839,3	11,533
839,7	26,333
840,1	18,133
840,6	35,533
841	45,333
841,4	20,933
841,9	10,933
842,3	29,733
842,7	30,733
843,1	34,133
843,6	32,133
844	46,733
844,4	41,533
844,9	42,133
845,3	32,733
845,7	36,733
846,2	33,333
846,6	44,133
847	35,933
847,4	25,133
847,9	35,333
848,3	10,933
848,7	31,733
849,2	38,933
849,6	31,133
850	14,933
850,4	27,733
850,9	17,333
851,3	14,733
851,7	15,533
852,2	40,333
852,6	26,333
853	22,933
853,4	31,533
853,9	9,533
854,3	34,733
854,7	3,133
855,2	18,333
855,6	8,133
856	3,133
856,4	-4,267
856,9	21,533
857,3	27,333
857,7	36,333
858,2	27,933
858,6	26,533
859	39,333
859,4	13,533
859,9	26,933
860,3	-4,267
860,7	27,133
861,1	46,133
861,6	31,333
862	6,133
862,4	-1,667
862,9	29,733
863,3	38,133
863,7	1,133
864,1	23,733
864,6	-0,667
865	28,333
865,4	43,533
865,9	24,533
866,3	21,133
866,7	23,933
867,1	13,333
867,6	18,333
868	58,533
868,4	42,733
868,8	-11,067
869,3	44,933
869,7	31,133
870,1	-0,067
870,6	24,733
871	17,333
871,4	63,533
871,8	31,733
872,3	-172,867
872,7	7,933
873,1	26,333
873,5	39,933
874	36,533
874,4	14,333
874,8	2,533
875,3	31,733
875,7	21,533
876,1	11,333
876,5	44,133
877	3,133
877,4	-2,467
877,8	32,933
878,2	17,933
878,7	19,933
879,1	-3,867
879,5	-21,667
879,9	16,333
880,4	-4,067
880,8	-2,667
881,2	27,333
881,7	13,933
882,1	10,333
882,5	16,733
882,9	30,133
883,4	30,133
883,8	45,933
884,2	33,133
884,6	4,133
885,1	21,133
885,5	5,733
885,9	37,333
886,3	-12,467
886,8	29,133
887,2	47,533
887,6	34,533
888	31,533
888,5	26,733
888,9	9,733
889,3	-1,867
889,8	9,533
890,2	18,933
890,6	-1,667
891	27,733
891,5	33,733
891,9	0,533
892,3	25,333
892,7	40,133
893,2	50,733
893,6	-12,067
894	24,733
894,4	47,133
894,9	12,333
895,3	39,133
895,7	-2,667
896,1	5,133
896,6	39,133
897	8,333
897,4	29,733
897,8	-14,067
898,3	9,133
898,7	-0,067
899,1	8,533
899,5	4,733
900	20,533
900,4	27,533
900,8	5,533
901,2	15,933
901,7	-1,867
902,1	11,933
902,5	14,133
902,9	18,133
903,4	22,133
903,8	-3,867
904,2	-33,667
904,6	15,533
905,1	15,733
905,5	32,333
905,9	37,733
906,3	13,733
906,8	-7,867
907,2	21,533
907,6	-8,267
908	25,733
908,5	-4,267
908,9	37,333
909,3	44,933
909,7	16,533
910,2	16,933
910,6	4,533
911	39,533
911,4	20,133
911,9	27,333
912,3	2,733
912,7	40,533
913,1	28,333
913,6	23,533
914	23,733
914,4	-7,467
914,8	10,933
915,3	1,733
915,7	14,333
916,1	24,933
916,5	-6,067
916,9	37,533
917,4	2,133
917,8	-0,067
918,2	32,533
918,6	24,933
919,1	-5,267
919,5	-6,267
919,9	28,133
920,3	20,333
920,8	11,133
921,2	17,533
921,6	-10,667
922	19,333
922,5	7,333
922,9	16,533
923,3	11,733
923,7	14,333
924,2	20,933
924,6	20,133
925	-6,467
925,4	15,533
925,8	12,133
926,3	31,933
926,7	20,733
927,1	25,333
927,5	34,933
928	-19,867
928,4	37,133
928,8	5,933
929,2	13,733
929,7	29,933
930,1	-13,267
930,5	0,733
930,9	14,533
931,3	11,733
931,8	6,533
932,2	40,533
932,6	4,333
933	15,533
933,5	9,733
933,9	20,533
934,3	-4,267
934,7	18,333
935,2	26,333
935,6	-4,867
936	28,333
936,4	48,533
936,8	6,133
937,3	5,933
937,7	-10,267
938,1	11,333
938,5	-20,867
939	22,333
939,4	-6,067
939,8	8,733
940,2	-25,667
940,6	0,733
941,1	4,533
941,5	15,133
941,9	1,933
942,3	11,333
942,8	-2,667
943,2	33,133
943,6	23,133
944	13,733
944,4	10,133
944,9	33,933
945,3	7,933
945,7	6,733
946,1	-3,867
946,6	8,533
947	40,933
947,4	-3,267
947,8	11,533
948,2	-19,467
948,7	-3,467
949,1	14,933
949,5	6,533
949,9	8,333
950,3	-6,267
950,8	4,133
951,2	13,533
951,6	6,933
952	19,333
952,5	41,333
952,9	17,933
953,3	4,533
953,7	36,533
954,1	15,533
954,6	6,533
955	30,133
955,4	11,733
955,8	-11,267
956,2	-18,467
956,7	7,733
957,1	1,333
957,5	-11,867
957,9	17,733
958,3	-22,267
958,8	32,533
959,2	-25,867
959,6	10,333
960	28,333
960,5	10,733
960,9	14,133
961,3	5,333
961,7	21,133
962,1	6,933
962,6	25,733
963	19,133
963,4	16,333
963,8	11,333
964,2	1,133
964,7	10,333
965,1	12,333
965,5	15,733
965,9	-3,467
966,3	-0,467
966,8	-8,467
967,2	-8,467
967,6	10,133
968	12,933
968,4	6,733
968,9	15,133
969,3	27,533
969,7	1,733
970,1	27,533
970,5	-6,667
971	-18,467
971,4	27,933
971,8	25,133
972,2	10,133
972,6	9,133
973,1	24,933
973,5	16,333
973,9	-4,467
974,3	20,133
974,7	8,933
975,2	-4,067
975,6	15,533
976	1,333
976,4	-13,067
976,8	-18,867
977,3	3,533
977,7	1,333
978,1	-0,867
978,5	38,533
978,9	-1,267
979,4	12,333
979,8	9,333
980,2	23,533
980,6	-0,867
981	-26,667
981,5	10,733
981,9	1,333
982,3	17,933
982,7	9,533
983,1	-4,067
983,6	12,733
984	9,733
984,4	21,133
984,8	-10,867
985,2	-3,667
985,6	29,733
986,1	2,533
986,5	8,933
986,9	6,333
987,3	-0,467
987,7	-1,667
988,2	-15,267
988,6	17,533
989	19,333
989,4	-12,067
989,8	18,133
990,3	16,733
990,7	5,533
991,1	-17,867
991,5	7,133
991,9	22,533
992,3	13,733
992,8	29,333
993,2	1,333
993,6	-19,867
994	14,333
994,4	-12,667
994,9	22,133
995,3	17,133
995,7	9,133
996,1	3,933
996,5	7,333
996,9	27,533
997,4	25,133
997,8	25,733
998,2	-10,267
998,6	18,533
999	1,733
999,5	-3,467
999,9	-13,467
1000,3	-0,067
1000,7	1,933
1001,1	14,533
1001,5	23,533
1002	-5,067
1002,4	5,933
1002,8	16,733
1003,2	-11,867
1003,6	16,933
1004	-14,867
1004,5	10,533
1004,9	9,133
1005,3	17,733
1005,7	14,733
1006,1	12,733
1006,6	-29,667
1007	23,133
1007,4	31,933
1007,8	15,533
1008,2	4,333
1008,6	18,133
1009,1	21,533
1009,5	20,933
1009,9	-3,267
1010,3	-30,867
1010,7	-6,667
1011,1	8,533
1011,6	35,533
1012	-9,867
1012,4	5,133
1012,8	-1,267
1013,2	32,933
1013,6	-9,267
1014,1	19,933
1014,5	5,733
1014,9	-3,867
1015,3	4,533
1015,7	-6,267
1016,1	-11,667
1016,6	27,333
1017	-4,267
1017,4	36,933
1017,8	-5,467
1018,2	-15,267
1018,6	3,533
1019,1	-2,467
1019,5	18,933
1019,9	13,133
1020,3	21,133
1020,7	27,933
1021,1	-8,467
1021,6	-4,667
1022	29,733
1022,4	15,133
1022,8	-0,667
1023,2	-14,467
1023,6	1,933
1024,1	16,933
1024,5	-31,267
1024,9	3,133
1025,3	-2,067
1025,7	9,733
1026,1	1,333
1026,6	11,733
1027	-23,867
1027,4	-1,867
1027,8	30,133
1028,2	-5,667
1028,6	30,733
1029	-3,867
1029,5	0,733
1029,9	1,133
1030,3	15,333
1030,7	1,733
1031,1	-7,267
1031,5	-12,467
1032	1,933
1032,4	25,533
1032,8	-6,467
1033,2	-0,267
1033,6	17,133
1034	15,333
1034,4	12,533
1034,9	7,133
1035,3	0,333
1035,7	19,333
1036,1	10,733
1036,5	1,533
1036,9	24,733
1037,4	10,733
1037,8	17,333
1038,2	52,733
1038,6	37,533
1039	-23,067
1039,4	9,533
1039,8	21,133
1040,3	0,133
1040,7	-1,467
1041,1	-0,867
1041,5	38,333
1041,9	14,733
1042,3	28,333
1042,7	8,333
1043,2	10,133
1043,6	-0,467
1044	22,133
1044,4	-21,267
1044,8	33,133
1045,2	14,933
1045,6	12,533
1046,1	-0,867
1046,5	27,333
1046,9	58,733
1047,3	35,533
1047,7	8,333
1048,1	15,533
1048,5	-12,467
1049	10,133
1049,4	-3,867
1049,8	-7,267
1050,2	-2,867
1050,6	-11,067
1051	30,733
1051,4	24,733
1051,9	0,933
1052,3	5,333
1052,7	-9,867
1053,1	11,733
1053,5	20,933
1053,9	21,933
1054,3	39,933
1054,8	-8,667
1055,2	0,733
1055,6	6,333
1056	1,933
1056,4	26,133
1056,8	2,533
1057,2	-0,667
1057,6	14,533
1058,1	-8,467
1058,5	2,333
1058,9	38,333
1059,3	4,933
1059,7	-5,867
1060,1	-11,867
1060,5	8,533
1061	-35,867
1061,4	12,333
1061,8	42,933
1062,2	3,133
1062,6	45,533
1063	22,933
1063,4	47,133
1063,8	-21,667
1064,3	-7,067
1064,7	1,933
1065,1	-3,267
1065,5	3,933
1065,9	-33,667
1066,3	23,733
1066,7	1,333
1067,1	27,133
1067,6	-10,867
1068	-4,667
1068,4	6,933
1068,8	-12,267
1069,2	-3,667
1069,6	-4,667
1070	13,333
1070,4	-25,867
1070,9	-15,067
1071,3	4,533
1071,7	10,333
1072,1	-12,867
1072,5	-21,267
1072,9	5,133
1073,3	11,733
1073,7	20,733
1074,2	4,733
1074,6	21,333
1075	-19,867
1075,4	1,933
1075,8	-3,467
1076,2	-15,667
1076,6	29,533
1077	-15,267
1077,5	7,333
1077,9	-3,067
1078,3	-32,667
1078,7	-0,867
1079,1	22,533
1079,5	3,333
1079,9	48,933
1080,3	11,733
1080,7	0,733
1081,2	0,733
1081,6	7,733
1082	6,533
1082,4	11,333
1082,8	26,933
1083,2	-8,667
1083,6	29,533
1084	15,733
1084,5	-10,267
1084,9	7,733
1085,3	12,133
1085,7	0,333
1086,1	-7,867
1086,5	16,933
1086,9	6,733
1087,3	16,933
1087,7	7,133
1088,2	4,733
1088,6	21,733
1089	-4,267
1089,4	14,133
1089,8	-15,267
1090,2	-16,067
1090,6	21,933
1091	-1,067
1091,4	-2,667
1091,9	-11,467
1092,3	18,733
1092,7	8,733
1093,1	-21,067
1093,5	-12,467
1093,9	13,933
1094,3	-14,067
1094,7	21,533
1095,1	18,533
1095,5	12,133
1096	10,733
1096,4	27,933
1096,8	29,733
1097,2	-30,467
1097,6	32,733
1098	9,733
1098,4	16,533
1098,8	-3,867
1099,2	17,333
1099,6	-3,467
1100,1	16,333
1100,5	-15,467
1100,9	6,733
1101,3	27,933
1101,7	30,133
1102,1	-3,067
1102,5	12,133
1102,9	4,533
1103,3	-5,467
1103,7	-4,267
1104,2	24,733
1104,6	-5,067
1105	3,933
1105,4	11,333
1105,8	-8,867
1106,2	3,133
1106,6	12,333
1107	-4,067
1107,4	0,933
1107,8	2,133
1108,3	0,933
