Data from Subt2_00016.txt Node
Date: Wed Aug 02 19:10:39 MSK 2023
User: vat
Spectrometer: MAYP114033
Trigger mode: 0
Integration Time (sec): 7,000000E-1
Scans to average: 5
Electric dark correction enabled: true
Nonlinearity correction enabled: false
Boxcar width: 0
XAxis mode: Wavelengths
Number of Pixels in Spectrum: 2068
>>>>>Begin Spectral Data<<<<<
199,4	-1,4
199,9	-2,4
200,4	-2
200,8	-0,2
201,3	-15
201,8	1,8
202,2	7,2
202,7	-2,6
203,2	2
203,6	5,2
204,1	15,8
204,6	13
205	6,4
205,5	5,6
206	17,4
206,4	-6,6
206,9	26,4
207,4	3
207,8	5,8
208,3	-1
208,8	4,6
209,2	10
209,7	9,8
210,2	26,8
210,6	-7,8
211,1	10,2
211,5	9,6
212	0,4
212,5	12,6
212,9	-10,8
213,4	-30
213,9	-5
214,3	8,4
214,8	9
215,3	8,4
215,7	-16
216,2	-14,2
216,7	13,6
217,1	11,4
217,6	4,2
218,1	15,8
218,5	26,4
219	1
219,5	5,4
219,9	10,8
220,4	35,2
220,9	-49,8
221,3	-1,2
221,8	-13
222,3	8,8
222,7	-28,4
223,2	16,4
223,6	0,4
224,1	-26,2
224,6	21,4
225	-0,8
225,5	4,4
226	10,2
226,4	10,8
226,9	12
227,4	-17,8
227,8	23
228,3	-3,6
228,8	8,2
229,2	-0,8
229,7	12
230,2	-17,2
230,6	-15,2
231,1	-7,8
231,5	18
232	6,6
232,5	-10,2
232,9	-6,4
233,4	18
233,9	-4,8
234,3	-7,4
234,8	29,8
235,3	12,8
235,7	23
236,2	7
236,7	14,4
237,1	17
237,6	-17,4
238,1	-7,8
238,5	-8,4
239	14,8
239,4	-27,2
239,9	-7,4
240,4	4
240,8	-1,4
241,3	8,4
241,8	19
242,2	-5,2
242,7	27,4
243,2	-2,8
243,6	7,6
244,1	-9,2
244,6	10
245	-3
245,5	4
245,9	-15,4
246,4	11,2
246,9	21
247,3	-25,6
247,8	20,6
248,3	-31,2
248,7	-14
249,2	40
249,7	-7,8
250,1	51
250,6	14,4
251	8,2
251,5	18,2
252	24
252,4	18,8
252,9	19,2
253,4	-2,4
253,8	16,4
254,3	8,4
254,8	-11,6
255,2	27,2
255,7	5
256,1	-12
256,6	32,4
257,1	-20,6
257,5	17
258	-8,6
258,5	1
258,9	-1,2
259,4	-8,8
259,9	-15,2
260,3	-11,4
260,8	3,2
261,2	16,4
261,7	-25,2
262,2	7,8
262,6	1
263,1	16,8
263,6	22,4
264	-14,4
264,5	-9
264,9	39,2
265,4	3
265,9	0,6
266,3	4,6
266,8	-7,2
267,3	24,8
267,7	-23,6
268,2	29,6
268,7	2,8
269,1	37,4
269,6	7,6
270	-14
270,5	-11
271	15
271,4	-0,2
271,9	-2,2
272,4	20,8
272,8	-4
273,3	47,2
273,7	13,4
274,2	19,6
274,7	-3,8
275,1	1
275,6	22,2
276,1	13,6
276,5	-37,6
277	41
277,4	14,4
277,9	-36,6
278,4	7,2
278,8	14
279,3	-17,2
279,8	14,6
280,2	-22,6
280,7	5,4
281,1	17,6
281,6	-6
282,1	-10,2
282,5	-5,2
283	37,6
283,4	3,4
283,9	12,2
284,4	-2,8
284,8	16,6
285,3	2,6
285,8	21,4
286,2	-12
286,7	17,2
287,1	-20,8
287,6	-14,4
288,1	-4,6
288,5	19,6
289	-31,8
289,5	14,4
289,9	8,8
290,4	-22,2
290,8	3
291,3	-33,6
291,8	3
292,2	2
292,7	12
293,1	-12,6
293,6	-12,2
294,1	-1,6
294,5	-19
295	-2
295,5	-12,2
295,9	-23,2
296,4	22,2
296,8	-7,2
297,3	-0
297,8	12,6
298,2	4,2
298,7	17,2
299,1	-10,4
299,6	-16,8
300,1	20,2
300,5	8,4
301	-14,6
301,5	-11
301,9	12
302,4	-30,2
302,8	11,2
303,3	19
303,8	-16,2
304,2	-8,2
304,7	20,8
305,1	4,4
305,6	15
306,1	-8,6
306,5	-13,8
307	10
307,4	-3,6
307,9	5
308,4	10,6
308,8	-17,8
309,3	2,2
309,8	-13,2
310,2	-2,4
310,7	36,4
311,1	20,8
311,6	18,4
312,1	-16,4
312,5	-11,6
313	24,8
313,4	0,6
313,9	5,4
314,4	-3,6
314,8	27
315,3	11,6
315,7	6
316,2	-9,4
316,7	9
317,1	-1,8
317,6	-10
318	1,8
318,5	-5,6
319	-8,8
319,4	33,8
319,9	2
320,3	8,6
320,8	9,8
321,3	-4,4
321,7	4
322,2	-0
322,6	11,6
323,1	15,4
323,6	-6,2
324	1,4
324,5	3,8
324,9	-15
325,4	-12,4
325,9	-2,2
326,3	17
326,8	23,2
327,2	-9,2
327,7	9,2
328,2	15,4
328,6	14
329,1	-3,2
329,5	19
330	-17,8
330,5	6,6
330,9	16,8
331,4	-15
331,8	17,8
332,3	5
332,8	23,8
333,2	30,6
333,7	22,6
334,1	15,6
334,6	26,2
335,1	8,4
335,5	11,2
336	-1,2
336,4	-8,4
336,9	8,2
337,4	-11,2
337,8	-1
338,3	19,8
338,7	-2,8
339,2	3,2
339,7	-3
340,1	12,4
340,6	35,6
341	31,2
341,5	7,6
342	-8
342,4	1
342,9	-2,8
343,3	-1
343,8	22,8
344,2	6,6
344,7	13
345,2	41,2
345,6	4,6
346,1	14,6
346,5	7,8
347	29
347,5	-0,4
347,9	21,2
348,4	5,8
348,8	46,2
349,3	31,2
349,8	29
350,2	13,4
350,7	48,8
351,1	64,8
351,6	48
352	48,4
352,5	63
353	53,8
353,4	97,8
353,9	146,8
354,3	175,2
354,8	174,4
355,3	217,2
355,7	246
356,2	350,4
356,6	322,2
357,1	439,6
357,5	536,6
358	622,8
358,5	707,8
358,9	807,6
359,4	952,8
359,8	1099,8
360,3	1317,6
360,8	1461,2
361,2	1673,4
361,7	1884,2
362,1	2162,2
362,6	2418,6
363	2708,2
363,5	3074
364	3436,4
364,4	3743,8
364,9	4104,2
365,3	4445,8
365,8	4777
366,3	5099,8
366,7	5342,4
367,2	5600,4
367,6	5755,2
368,1	6001,8
368,5	6055,6
369	6131
369,5	6093,4
369,9	6028,6
370,4	5962
370,8	5779,8
371,3	5622,4
371,7	5388,6
372,2	5114,4
372,7	4885,4
373,1	4595,8
373,6	4335,2
374	4052,6
374,5	3754
374,9	3421,8
375,4	3204,2
375,9	3011,8
376,3	2728
376,8	2497,6
377,2	2324,2
377,7	2093,2
378,2	1916,6
378,6	1733,4
379,1	1624,2
379,5	1468,4
380	1307,4
380,4	1243,8
380,9	1104
381,4	998,6
381,8	941,8
382,3	851
382,7	776,4
383,2	754,4
383,6	666,8
384,1	636,8
384,6	615,6
385	551,4
385,5	492,6
385,9	488,8
386,4	441
386,8	371
387,3	352,8
387,7	361
388,2	308,8
388,7	322,8
389,1	254
389,6	286,8
390	242,8
390,5	231,8
390,9	193,4
391,4	167
391,9	154
392,3	162,6
392,8	197,8
393,2	144,8
393,7	160,4
394,1	126
394,6	132,4
395,1	121,4
395,5	128,8
396	91,8
396,4	84,6
396,9	67,8
397,3	58,2
397,8	100,4
398,2	66
398,7	77,4
399,2	55,6
399,6	74,6
400,1	75,2
400,5	67
401	67,2
401,4	65,2
401,9	89,2
402,4	51,8
402,8	63,6
403,3	23
403,7	48
404,2	56,6
404,6	105,4
405,1	38,8
405,5	9
406	55,2
406,5	29,2
406,9	20
407,4	32,2
407,8	37,4
408,3	56,4
408,7	30,4
409,2	42,6
409,6	20,4
410,1	27
410,6	51,2
411	42,4
411,5	14,8
411,9	33,4
412,4	33
412,8	37
413,3	41,2
413,7	39,4
414,2	41,6
414,7	47,2
415,1	26,6
415,6	18
416	47,4
416,5	30,2
416,9	35,2
417,4	52,2
417,8	64,8
418,3	45,4
418,8	67,8
419,2	36,6
419,7	44
420,1	38,4
420,6	31,2
421	51,6
421,5	66,8
421,9	41
422,4	46,6
422,8	31,8
423,3	54,6
423,8	58,4
424,2	41,4
424,7	30,8
425,1	34,4
425,6	67
426	25,8
426,5	49,8
426,9	65
427,4	56,6
427,9	27,6
428,3	45,8
428,8	12,2
429,2	48,2
429,7	56,8
430,1	20
430,6	43,6
431	29
431,5	45,4
431,9	8
432,4	45,4
432,8	43,8
433,3	15,4
433,8	32
434,2	47,2
434,7	36,2
435,1	2,2
435,6	29,4
436	9,2
436,5	30,6
436,9	51,4
437,4	27,6
437,8	-2,4
438,3	15,6
438,8	15,8
439,2	16
439,7	7,6
440,1	10,6
440,6	13,4
441	21,2
441,5	24,4
441,9	42,8
442,4	21,6
442,8	11,6
443,3	29
443,7	20,4
444,2	19
444,7	27,4
445,1	23,4
445,6	42,8
446	24,2
446,5	28,2
446,9	43,2
447,4	12,4
447,8	-7,8
448,3	-1,2
448,7	37,8
449,2	33
449,6	16,4
450,1	48,4
450,6	-1,8
451	12,8
451,5	12,4
451,9	28,2
452,4	-1
452,8	39,8
453,3	13,6
453,7	45
454,2	31,8
454,6	19,2
455,1	11
455,5	31,2
456	9
456,4	-3,6
456,9	34,2
457,3	13
457,8	9,8
458,3	25,4
458,7	31,2
459,2	49
459,6	24
460,1	34,8
460,5	34,2
461	15,6
461,4	-1,6
461,9	43,6
462,3	-1,4
462,8	22
463,2	28,6
463,7	34,4
464,1	21,2
464,6	36,6
465	15,6
465,5	-5,2
466	28,2
466,4	34,8
466,9	36,2
467,3	5,6
467,8	6,2
468,2	49
468,7	18,6
469,1	51,6
469,6	12,4
470	0,2
470,5	1
470,9	6,8
471,4	-0,6
471,8	-4,4
472,3	15,4
472,7	3,4
473,2	35
473,6	-4
474,1	7,4
474,5	18,8
475	8,6
475,4	12,4
475,9	9,6
476,4	32,6
476,8	32,2
477,3	19,8
477,7	-8,4
478,2	26,2
478,6	4,2
479,1	15,2
479,5	9
480	21,4
480,4	38
480,9	-16,2
481,3	-0,4
481,8	23
482,2	-13
482,7	-0
483,1	6,4
483,6	-2,6
484	28
484,5	16,4
484,9	28,2
485,4	15,4
485,8	8,8
486,3	-9,4
486,7	35,8
487,2	-7,6
487,6	5,8
488,1	39,2
488,5	-1
489	-11,4
489,4	9,4
489,9	29,8
490,4	-1,8
490,8	26,6
491,3	18,8
491,7	-3
492,2	31,6
492,6	21,8
493,1	-4,4
493,5	31
494	17,2
494,4	17,4
494,9	24,8
495,3	48
495,8	41,4
496,2	2,2
496,7	4,6
497,1	20
497,6	11
498	33,4
498,5	-1,4
498,9	10,8
499,4	24,4
499,8	13,6
500,3	26
500,7	3,6
501,2	1,8
501,6	18,6
502,1	58
502,5	34,2
503	9,4
503,4	-14,2
503,9	26,2
504,3	9
504,8	-12
505,2	3,6
505,7	27,4
506,1	5,6
506,6	17
507	-23,2
507,5	24,4
507,9	8,2
508,4	-0
508,8	-4,2
509,3	26,2
509,7	3,6
510,2	22
510,6	-8,2
511,1	5,2
511,5	20,6
512	12,8
512,4	20,4
512,9	9,6
513,3	7,2
513,8	28,4
514,2	-25
514,7	24,6
515,1	-9,8
515,6	18,4
516	7,4
516,5	-24,4
516,9	2,2
517,4	11
517,8	45,4
518,3	30,8
518,7	13,2
519,2	6,4
519,6	3,2
520,1	16,8
520,5	-2,6
521	19,8
521,4	-0,6
521,9	2,6
522,3	-7,2
522,8	-5,8
523,2	-35,2
523,7	12
524,1	9,2
524,6	7,8
525	-5,4
525,5	-5
525,9	1,8
526,4	14,4
526,8	8
527,3	-9,2
527,7	-2
528,2	12
528,6	2
529,1	7
529,5	15
530	17,6
530,4	-14,8
530,9	18,4
531,3	31,8
531,8	10,6
532,2	24,6
532,6	-20,6
533,1	-8,4
533,5	-13,6
534	14,6
534,4	4,2
534,9	-0,2
535,3	-3,8
535,8	31,8
536,2	25,4
536,7	22,2
537,1	-21
537,6	4,8
538	29,4
538,5	25,8
538,9	-7,4
539,4	1,8
539,8	-25,2
540,3	5,6
540,7	-7,6
541,2	8,6
541,6	-14,6
542,1	14,4
542,5	-2,4
543	0,8
543,4	-10,8
543,9	-0
544,3	23
544,8	5
545,2	19,6
545,7	6,8
546,1	-4
546,5	-5
547	-2,2
547,4	31,2
547,9	14
548,3	11,6
548,8	-10
549,2	27,2
549,7	1,6
550,1	1
550,6	26,6
551	-9,4
551,5	-7,8
551,9	15,6
552,4	-13,2
552,8	-7,6
553,3	-15,8
553,7	-12,6
554,2	15,8
554,6	-2
555,1	38,2
555,5	45,8
555,9	31,6
556,4	3
556,8	25
557,3	14,6
557,7	-2,2
558,2	-7
558,6	37,6
559,1	30,8
559,5	-2,2
560	19,6
560,4	-3,4
560,9	16,6
561,3	-4
561,8	-3
562,2	14,6
562,7	10,8
563,1	16
563,6	-3,8
564	1,8
564,4	1,6
564,9	7
565,3	40,8
565,8	-22,2
566,2	46
566,7	-15,8
567,1	5,4
567,6	-13,8
568	8,6
568,5	-9,2
568,9	-6,6
569,4	16,2
569,8	29
570,3	27,8
570,7	11
571,1	9,6
571,6	-8
572	9,2
572,5	-19,6
572,9	16
573,4	7,4
573,8	-7
574,3	3
574,7	6,6
575,2	0,2
575,6	-9
576,1	0,2
576,5	-13
576,9	12,2
577,4	29,2
577,8	-18
578,3	-0,2
578,7	-5
579,2	17,4
579,6	-12,4
580,1	-2,4
580,5	16
581	21,2
581,4	-21,4
581,9	9,4
582,3	-7
582,7	-9,4
583,2	-17,6
583,6	10,4
584,1	14
584,5	15
585	7,8
585,4	32,4
585,9	1,6
586,3	-5,8
586,8	-13,4
587,2	-14
587,6	15,6
588,1	22,8
588,5	22,8
589	-1,4
589,4	2,4
589,9	18,6
590,3	-30,8
590,8	13,8
591,2	5,2
591,7	-0
592,1	19,4
592,5	-1,8
593	-0,8
593,4	48,4
593,9	-7
594,3	-18
594,8	-11,8
595,2	4
595,7	8,4
596,1	15,2
596,6	10,6
597	-6,8
597,4	35
597,9	10,6
598,3	-11,6
598,8	-30,2
599,2	-5,6
599,7	7,2
600,1	-11,8
600,6	-15,4
601	6,6
601,4	30,6
601,9	3,4
602,3	-2,2
602,8	31,2
603,2	-34
603,7	-0,2
604,1	4,6
604,6	31,6
605	23,2
605,4	9,8
605,9	7
606,3	-1,2
606,8	-4,6
607,2	26,6
607,7	21,6
608,1	7,6
608,6	12,6
609	-15,8
609,4	15,8
609,9	14,4
610,3	-8,4
610,8	24,2
611,2	18,2
611,7	-17,4
612,1	0,2
612,6	14,6
613	3,6
613,4	2,6
613,9	-4,8
614,3	-24,4
614,8	0,8
615,2	-1
615,7	13
616,1	13,8
616,6	-0
617	47,8
617,4	6,8
617,9	16,8
618,3	-10,8
618,8	2,4
619,2	-17
619,7	13,6
620,1	6,2
620,5	6,8
621	-5
621,4	-6,8
621,9	16,8
622,3	-27,8
622,8	24,2
623,2	13
623,6	12
624,1	33,6
624,5	21,2
625	18,8
625,4	24,6
625,9	4,2
626,3	-19,4
626,8	8,6
627,2	1,4
627,6	-10,6
628,1	-16
628,5	-5,2
629	24
629,4	19,4
629,9	-17
630,3	-11,4
630,7	-8,6
631,2	-8
631,6	5,2
632,1	14,6
632,5	1,2
633	9,2
633,4	4,6
633,8	12
634,3	-31
634,7	1,2
635,2	9,8
635,6	4
636,1	13,4
636,5	-24
636,9	24,4
637,4	17,6
637,8	34,2
638,3	-8,4
638,7	10
639,2	-18,6
639,6	21,6
640	18,8
640,5	7,2
640,9	6,6
641,4	-2,8
641,8	12,2
642,2	-4,4
642,7	-7,2
643,1	16,4
643,6	-41,4
644	-17,4
644,5	2,4
644,9	20,4
645,3	31,8
645,8	7,8
646,2	-11,2
646,7	-8,6
647,1	-7,2
647,6	-11
648	39,4
648,4	-7,4
648,9	-14,2
649,3	13,2
649,8	-13,4
650,2	12,6
650,6	-10,4
651,1	-5,4
651,5	22,2
652	-8,2
652,4	-10
652,9	31,2
653,3	21,4
653,7	15,8
654,2	13,6
654,6	5,6
655,1	-0,4
655,5	9,8
655,9	-35,2
656,4	22,6
656,8	-12,4
657,3	-5,4
657,7	9
658,2	19,8
658,6	5,2
659	-9,6
659,5	-21,4
659,9	-13
660,4	-15
660,8	-3
661,2	12
661,7	-8,4
662,1	22
662,6	-4
663	-12
663,4	-8,2
663,9	1,8
664,3	-12,8
664,8	11,6
665,2	23,6
665,6	-2,8
666,1	-7
666,5	-28,8
667	21,2
667,4	14,8
667,9	-0,2
668,3	-16,4
668,7	17
669,2	-2
669,6	-27,4
670,1	-24,8
670,5	-2,8
670,9	-3
671,4	23,2
671,8	-23,2
672,3	25,6
672,7	-3,8
673,1	21,8
673,6	12,4
674	1,8
674,5	-20,4
674,9	25
675,3	-8,6
675,8	-13,2
676,2	24,6
676,7	-10,6
677,1	-12,2
677,5	20,2
678	-8
678,4	19
678,9	-1,8
679,3	-0,4
679,7	8
680,2	8,2
680,6	1
681,1	30,2
681,5	-2
681,9	11,4
682,4	-4,8
682,8	30
683,3	-6
683,7	6,6
684,1	16,6
684,6	18,6
685	-31,8
685,5	-2,2
685,9	-14
686,3	14
686,8	-24
687,2	20
687,7	-31
688,1	-0,4
688,5	24,4
689	5,2
689,4	26,8
689,9	1,6
690,3	-1
690,7	31,2
691,2	-16,2
691,6	-11,2
692	-19,2
692,5	24,8
692,9	31,8
693,4	-14,6
693,8	28,8
694,2	-35,4
694,7	16,6
695,1	29,6
695,6	5,4
696	12,2
696,4	-17,8
696,9	22,2
697,3	-4,6
697,8	7,2
698,2	-14,8
698,6	2,4
699,1	16,2
699,5	-22,8
699,9	13,2
700,4	0,4
700,8	16,2
701,3	0,8
701,7	-3,2
702,1	2,6
702,6	-33
703	10,2
703,5	-8,4
703,9	38,8
704,3	3,4
704,8	-4,4
705,2	13,2
705,6	8,8
706,1	-7,6
706,5	15,6
707	-3
707,4	-22,6
707,8	-2
708,3	-9,2
708,7	2,2
709,2	1,4
709,6	20
710	-1,6
710,5	-15,4
710,9	26,6
711,3	-7
711,8	-15
712,2	8,6
712,7	-23,2
713,1	-14
713,5	-5,8
714	0
714,4	0,4
714,8	5
715,3	-8
715,7	-7,6
716,2	-18
716,6	3,4
717	-26,4
717,5	-9,6
717,9	16,4
718,3	2,2
718,8	-4,2
719,2	27,6
719,7	-11,8
720,1	33,6
720,5	5,6
721	-22,4
721,4	10,6
721,8	-11,2
722,3	2,4
722,7	0,4
723,2	16,4
723,6	8,4
724	-12,8
724,5	5,4
724,9	3,6
725,3	2
725,8	4
726,2	50,2
726,7	-6,8
727,1	11,2
727,5	10,2
728	-3,6
728,4	-10
728,8	5,8
729,3	-9,6
729,7	27,8
730,1	0,4
730,6	13,6
731	-16,2
731,5	-8
731,9	4,4
732,3	-8,2
732,8	-12,8
733,2	-13,2
733,6	-25,8
734,1	10,8
734,5	-9,8
734,9	19,2
735,4	23,4
735,8	6,8
736,3	-13,4
736,7	21,8
737,1	1,8
737,6	-2,8
738	9,4
738,4	-7,2
738,9	-6,6
739,3	-10,6
739,7	1,2
740,2	-10,8
740,6	18,8
741,1	2,8
741,5	1
741,9	-13,4
742,4	10,8
742,8	29,8
743,2	21,8
743,7	19,6
744,1	-4,2
744,5	-14,8
745	7,6
745,4	29,8
745,8	-2,6
746,3	-14,4
746,7	22,6
747,2	16,4
747,6	-4,8
748	10,4
748,5	7,6
748,9	13,6
749,3	18,2
749,8	4,6
750,2	19,8
750,6	21,4
751,1	16,2
751,5	6,8
751,9	-11
752,4	-3,8
752,8	9,2
753,3	-4,4
753,7	-1
754,1	-8,4
754,6	27,2
755	8,8
755,4	-1,2
755,9	23,2
756,3	-1,8
756,7	-13,6
757,2	10,4
757,6	17,8
758	-29,8
758,5	12,2
758,9	-14,6
759,3	-0,8
759,8	16
760,2	20,8
760,6	14,4
761,1	14,4
761,5	-16,6
761,9	29,6
762,4	-17,8
762,8	-36,2
763,3	36
763,7	15,4
764,1	11
764,6	-6
765	5,8
765,4	-11,8
765,9	8,4
766,3	28,4
766,7	-10,8
767,2	-0,8
767,6	10,4
768	-5,2
768,5	1
768,9	-4,4
769,3	-7
769,8	-8,8
770,2	6,8
770,6	6,4
771,1	-20,4
771,5	40,6
771,9	-17,2
772,4	-9,8
772,8	30,4
773,2	0,6
773,7	-4,4
774,1	-17,4
774,5	16,8
775	-18
775,4	19
775,8	3,6
776,3	-3
776,7	-3,4
777,1	-21,4
777,6	-2,4
778	16
778,4	24,2
778,9	23,4
779,3	-24,6
779,7	-20
780,2	10
780,6	-13,8
781	-12,8
781,5	-10,6
781,9	10,8
782,3	24,2
782,8	-4,8
783,2	-14,4
783,6	-15
784,1	27,6
784,5	-20
784,9	32,2
785,4	2,8
785,8	-15,6
786,2	30,4
786,7	2,4
787,1	8,8
787,5	-11,6
788	8,4
788,4	3,2
788,8	-8,4
789,3	-7,8
789,7	-4,4
790,1	7,4
790,6	1,8
791	3
791,4	-13,8
791,9	23,6
792,3	39,6
792,7	15,6
793,2	4,6
793,6	3,6
794	-7,8
794,5	8
794,9	-6,8
795,3	20,2
795,8	-15
796,2	-25,2
796,6	-19,2
797,1	11,8
797,5	8,6
797,9	-11
798,4	12,8
798,8	10,6
799,2	15,4
799,7	-10,4
800,1	31
800,5	26,4
801	10,8
801,4	-13,4
801,8	21
802,2	-8,2
802,7	-8
803,1	26,4
803,5	-12,4
804	9,6
804,4	-5,4
804,8	-40,2
805,3	-13,6
805,7	-32,2
806,1	-11
806,6	1
807	-32,6
807,4	0,4
807,9	37,6
808,3	-26
808,7	7
809,2	-14,2
809,6	-14,6
810	11,6
810,4	-2,2
810,9	-3,8
811,3	21
811,7	17,2
812,2	-7
812,6	35
813	3,2
813,5	17,6
813,9	-1,8
814,3	-18,6
814,8	18,8
815,2	20,6
815,6	3,2
816,1	-10
816,5	36,2
816,9	-1,4
817,3	-23,6
817,8	-10,6
818,2	-8,2
818,6	16
819,1	31,2
819,5	-18,2
819,9	-1,4
820,4	-7,2
820,8	12,4
821,2	9,4
821,7	17,2
822,1	15,8
822,5	6,6
822,9	22,6
823,4	26,8
823,8	12,2
824,2	39,6
824,7	-8,6
825,1	0,6
825,5	1,8
826	8
826,4	10,4
826,8	7,6
827,3	-17,4
827,7	-8,8
828,1	-5,2
828,5	-1,4
829	-16
829,4	7,6
829,8	-6,2
830,3	-2,8
830,7	10
831,1	18,6
831,6	25,8
832	14
832,4	-1,2
832,8	5,6
833,3	-28,8
833,7	-9,2
834,1	2,6
834,6	1,2
835	10,6
835,4	-20,4
835,8	22,2
836,3	44,4
836,7	0,4
837,1	-1,2
837,6	7,2
838	14,2
838,4	-7,4
838,9	-9,6
839,3	14,6
839,7	11,8
840,1	5,4
840,6	35,2
841	7,6
841,4	-20
841,9	-9,2
842,3	36,2
842,7	1
843,1	-34,8
843,6	-5,6
844	14,6
844,4	12,6
844,9	4,4
845,3	8
845,7	-12,6
846,2	-6
846,6	37
847	-8
847,4	12,2
847,9	9
848,3	-5,2
848,7	12,8
849,2	-4,2
849,6	-21,2
850	5,2
850,4	20,8
850,9	-7,8
851,3	8,6
851,7	-0
852,2	19
852,6	10,4
853	-29,2
853,4	14
853,9	-12,8
854,3	2,8
854,7	-19
855,2	-17,8
855,6	-18
856	22
856,4	17,8
856,9	29,2
857,3	-10,6
857,7	19,4
858,2	-1,4
858,6	8,4
859	-0,6
859,4	-26
859,9	-35,4
860,3	3
860,7	3
861,1	12,2
861,6	-11,2
862	14,6
862,4	18,4
862,9	-5,6
863,3	6
863,7	13,4
864,1	-14,8
864,6	23,6
865	31,8
865,4	-23
865,9	-5,6
866,3	7,4
866,7	29,8
867,1	5,8
867,6	4,4
868	-7,6
868,4	-5,8
868,8	0,6
869,3	19,2
869,7	17,8
870,1	8
870,6	-17,6
871	-0,2
871,4	21,4
871,8	5,8
872,3	-2,8
872,7	-0,2
873,1	5,6
873,5	-1,4
874	-3,6
874,4	4
874,8	14,8
875,3	0,6
875,7	-8,2
876,1	-3
876,5	30,8
877	-18,2
877,4	24,4
877,8	20,8
878,2	9,4
878,7	17,6
879,1	20
879,5	18,6
879,9	2,2
880,4	9,6
880,8	4,4
881,2	5,4
881,7	-22,6
882,1	0,8
882,5	14,4
882,9	0
883,4	5,4
883,8	-1,4
884,2	-12
884,6	-22,8
885,1	-38,4
885,5	-0
885,9	5,4
886,3	4
886,8	5,4
887,2	-15,8
887,6	12,6
888	-19,6
888,5	-6,8
888,9	11,6
889,3	13
889,8	-4,2
890,2	13,8
890,6	2,6
891	18,8
891,5	-3
891,9	12,8
892,3	-7,2
892,7	-8,4
893,2	4
893,6	10
894	-39
894,4	12
894,9	6,8
895,3	-11
895,7	46,8
896,1	18,4
896,6	-0,4
897	8,8
897,4	-9
897,8	-3,8
898,3	-2,2
898,7	7,2
899,1	-18,4
899,5	-0,6
900	4,4
900,4	-34,8
900,8	8,8
901,2	-14,6
901,7	22,6
902,1	17
902,5	-8,8
902,9	-0
903,4	-11,4
903,8	3,4
904,2	-3,4
904,6	-14
905,1	8,8
905,5	14
905,9	-15
906,3	7,6
906,8	-13,4
907,2	11
907,6	-12
908	-16,8
908,5	3,8
908,9	-11,2
909,3	-11,8
909,7	-12,4
910,2	38,6
910,6	-3
911	3,6
911,4	3,6
911,9	-8,8
912,3	-17,8
912,7	28,8
913,1	21,2
913,6	-11,6
914	-13,2
914,4	21
914,8	4,2
915,3	3,2
915,7	4,8
916,1	40,2
916,5	3,6
916,9	12,8
917,4	-3,8
917,8	11,6
918,2	-7,8
918,6	-0,2
919,1	-32
919,5	3,8
919,9	3,8
920,3	18,2
920,8	8,2
921,2	-25,6
921,6	-25,6
922	4
922,5	-14,8
922,9	16,4
923,3	11,8
923,7	32
924,2	24,2
924,6	-21,2
925	19,6
925,4	13,2
925,8	-1
926,3	-9,8
926,7	11,8
927,1	-6,8
927,5	-24,6
928	1,8
928,4	-0
928,8	0,8
929,2	-18
929,7	29
930,1	-1,8
930,5	-4,2
930,9	-4,6
931,3	8,2
931,8	0,4
932,2	21
932,6	-18,4
933	0,8
933,5	-13,4
933,9	-16,2
934,3	0,8
934,7	-5,2
935,2	6,2
935,6	-34,4
936	2,4
936,4	-13,8
936,8	1
937,3	14,8
937,7	-9,2
938,1	-6
938,5	-0,6
939	26,2
939,4	-2,8
939,8	-14,8
940,2	-14,8
940,6	12,6
941,1	-8,6
941,5	11,4
941,9	-20,4
942,3	10,4
942,8	18,2
943,2	9,8
943,6	-6,2
944	-3,2
944,4	24
944,9	-6,6
945,3	8,2
945,7	-10
946,1	-9,4
946,6	-10,2
947	-14,4
947,4	20
947,8	10,2
948,2	0,8
948,7	8
949,1	-7,6
949,5	6
949,9	19,2
950,3	10,6
950,8	-9,2
951,2	3,4
951,6	-21,2
952	-3,6
952,5	-9,2
952,9	-0,8
953,3	-3
953,7	-0,2
954,1	12,8
954,6	12,6
955	15,2
955,4	3,8
955,8	25,4
956,2	32
956,7	-11,2
957,1	31,8
957,5	-18,4
957,9	38,6
958,3	-7,2
958,8	12
959,2	4,4
959,6	4
960	14,6
960,5	33,8
960,9	9
961,3	25,8
961,7	-10,6
962,1	-6
962,6	6,6
963	10,6
963,4	-29,6
963,8	9,4
964,2	3
964,7	12
965,1	7,4
965,5	17,6
965,9	19
966,3	-19,8
966,8	-12
967,2	-6,6
967,6	18
968	18,4
968,4	-6,2
968,9	5,8
969,3	-7,6
969,7	-17,2
970,1	-9,2
970,5	-8,6
971	14,8
971,4	7
971,8	3,2
972,2	16,8
972,6	18
973,1	-13,2
973,5	-20,4
973,9	9,8
974,3	-15,6
974,7	23
975,2	33,4
975,6	1
976	2,8
976,4	-11,4
976,8	7,8
977,3	-14,6
977,7	-12,6
978,1	8,8
978,5	-1,8
978,9	-3,6
979,4	13,4
979,8	8,6
980,2	13,6
980,6	-10
981	2,8
981,5	-12,2
981,9	11,4
982,3	4
982,7	9
983,1	4,6
983,6	9
984	-9,2
984,4	-2,4
984,8	-16,4
985,2	-24,4
985,6	4
986,1	-11,8
986,5	-30
986,9	38,8
987,3	-21
987,7	-8,4
988,2	-28,8
988,6	18,2
989	10
989,4	-1
989,8	-14
990,3	-24,2
990,7	-15
991,1	25,8
991,5	46
991,9	-7,6
992,3	-3
992,8	-3,4
993,2	-16,8
993,6	4,8
994	10
994,4	-12
994,9	9,8
995,3	4,8
995,7	-12,6
996,1	5
996,5	-6,2
996,9	33
997,4	40,4
997,8	3,2
998,2	-19,8
998,6	18,4
999	3,4
999,5	10,8
999,9	4,6
1000,3	-8,4
1000,7	12,2
1001,1	-13,2
1001,5	-40
1002	3,4
1002,4	22,4
1002,8	1,8
1003,2	-1,4
1003,6	-9,4
1004	-2,2
1004,5	4
1004,9	20
1005,3	24
1005,7	-15,6
1006,1	-10,6
1006,6	13,4
1007	-15,6
1007,4	2,4
1007,8	-18,2
1008,2	23,8
1008,6	-31,8
1009,1	8,6
1009,5	9,6
1009,9	-16
1010,3	-9,8
1010,7	1
1011,1	7,6
1011,6	11
1012	42,4
1012,4	12,6
1012,8	-18,6
1013,2	-7
1013,6	11,2
1014,1	16,6
1014,5	21
1014,9	8,8
1015,3	20,4
1015,7	-7,4
1016,1	-8,4
1016,6	-19
1017	-18
1017,4	3,2
1017,8	8,6
1018,2	-6,6
1018,6	-9,8
1019,1	46,6
1019,5	18,4
1019,9	21,4
1020,3	21,8
1020,7	15,2
1021,1	-7
1021,6	-8,4
1022	11,4
1022,4	-23,4
1022,8	-7,4
1023,2	1,2
1023,6	-8,8
1024,1	-17,6
1024,5	-1,4
1024,9	-9,2
1025,3	12,8
1025,7	-34,2
1026,1	-3,2
1026,6	10,2
1027	-8,4
1027,4	0,4
1027,8	-19,4
1028,2	-14,2
1028,6	2,4
1029	8
1029,5	19
1029,9	7
1030,3	-8,4
1030,7	-0,8
1031,1	-2,2
1031,5	18,4
1032	35,8
1032,4	9,6
1032,8	-7,8
1033,2	33,2
1033,6	27
1034	-1,2
1034,4	-3,8
1034,9	32
1035,3	-1,8
1035,7	-3,6
1036,1	11,8
1036,5	27,8
1036,9	17,6
1037,4	-0,4
1037,8	-10,6
1038,2	-3
1038,6	10,6
1039	6,4
1039,4	11,4
1039,8	-7,6
1040,3	10
1040,7	-28,2
1041,1	42,4
1041,5	-2,8
1041,9	21,4
1042,3	10,6
1042,7	-17
1043,2	-16,8
1043,6	-8,4
1044	-1,4
1044,4	8
1044,8	20,2
1045,2	10,2
1045,6	-5,2
1046,1	-0,8
1046,5	0,6
1046,9	9,2
1047,3	-11,2
1047,7	-21,4
1048,1	5,8
1048,5	13,8
1049	-32
1049,4	-25
1049,8	-29
1050,2	19
1050,6	12,2
1051	-27,2
1051,4	1,4
1051,9	11,6
1052,3	-37,2
1052,7	10,2
1053,1	30,6
1053,5	21,8
1053,9	16
1054,3	-35,2
1054,8	-6,2
1055,2	9,6
1055,6	-22,8
1056	4,4
1056,4	-40,6
1056,8	10,6
1057,2	-7,8
1057,6	-4,6
1058,1	-12,4
1058,5	-14,4
1058,9	-8,8
1059,3	1,8
1059,7	-4
1060,1	-27,8
1060,5	0,8
1061	27,4
1061,4	8,8
1061,8	2,2
1062,2	-16,2
1062,6	6,8
1063	9,4
1063,4	27,4
1063,8	-9,8
1064,3	13,8
1064,7	-30,4
1065,1	9
1065,5	-1,6
1065,9	26
1066,3	-7,6
1066,7	-17
1067,1	11
1067,6	-12,8
1068	12
1068,4	-6,4
1068,8	3,4
1069,2	12,6
1069,6	-18,2
1070	20
1070,4	-32,2
1070,9	-4,8
1071,3	-19
1071,7	16,2
1072,1	35,4
1072,5	1,6
1072,9	24,8
1073,3	26,4
1073,7	25
1074,2	-14,2
1074,6	-1,2
1075	-19,6
1075,4	12,6
1075,8	5
1076,2	-21,6
1076,6	28,2
1077	-22
1077,5	-14,2
1077,9	-6,2
1078,3	2,8
1078,7	-3,6
1079,1	-2,4
1079,5	-0,2
1079,9	19,2
1080,3	-2,4
1080,7	12,8
1081,2	10,8
1081,6	-2,6
1082	8,4
1082,4	30,6
1082,8	-29,6
1083,2	7,4
1083,6	22,4
1084	4,8
1084,5	7,6
1084,9	-0,2
1085,3	14,6
1085,7	-3,6
1086,1	-2
1086,5	8,6
1086,9	3,2
1087,3	-8,6
1087,7	-16
1088,2	7
1088,6	-16
1089	-29
1089,4	6,8
1089,8	5,6
1090,2	-14,2
1090,6	12,4
1091	-4,2
1091,4	11,8
1091,9	-2
1092,3	-17
1092,7	24,8
1093,1	28,8
1093,5	-28,6
1093,9	9
1094,3	-4,8
1094,7	-4,6
1095,1	-0,4
1095,5	-10
1096	-10,6
1096,4	40,2
1096,8	-33,8
1097,2	11,4
1097,6	20
1098	-14,2
1098,4	-4,8
1098,8	-0,2
1099,2	4
1099,6	-10
1100,1	10,2
1100,5	19,8
1100,9	-9,6
1101,3	6,4
1101,7	17,2
1102,1	-17,6
1102,5	-7,2
1102,9	28,2
1103,3	11,2
1103,7	2,8
1104,2	-9,4
1104,6	11,4
1105	-6,6
1105,4	-16,8
1105,8	-12,4
1106,2	-7,2
1106,6	5,4
1107	0,2
1107,4	2,4
1107,8	0,2
1108,3	-0,6
