Data from Subt2_00030.txt Node
Date: Wed Aug 02 19:34:03 MSK 2023
User: vat
Spectrometer: MAYP114033
Trigger mode: 0
Integration Time (sec): 7,000000E-1
Scans to average: 5
Electric dark correction enabled: true
Nonlinearity correction enabled: false
Boxcar width: 0
XAxis mode: Wavelengths
Number of Pixels in Spectrum: 2068
>>>>>Begin Spectral Data<<<<<
199,4	-0,333
199,9	3,267
200,4	-1,133
200,8	-0,533
201,3	-8,933
201,8	-11,733
202,2	7,667
202,7	18,267
203,2	4,867
203,6	0,867
204,1	16,267
204,6	8,867
205	-2,733
205,5	-24,533
206	12,467
206,4	9,267
206,9	-5,333
207,4	17,267
207,8	2,667
208,3	-15,733
208,8	1,667
209,2	22,067
209,7	-5,133
210,2	-4,933
210,6	5,467
211,1	15,067
211,5	-4,333
212	-18,933
212,5	17,467
212,9	-30,733
213,4	0,067
213,9	-6,133
214,3	9,667
214,8	-12,733
215,3	10,667
215,7	28,467
216,2	5,467
216,7	10,067
217,1	-3,533
217,6	24,067
218,1	-3,733
218,5	6,667
219	11,067
219,5	-2,533
219,9	-2,533
220,4	18,267
220,9	6,067
221,3	7,867
221,8	14,867
222,3	24,467
222,7	0,667
223,2	25,667
223,6	1,467
224,1	2,067
224,6	-1,533
225	-26,933
225,5	10,267
226	19,467
226,4	16,267
226,9	-1,333
227,4	31,867
227,8	12,667
228,3	7,867
228,8	24,667
229,2	2,867
229,7	9,867
230,2	-44,333
230,6	-15,733
231,1	-12,733
231,5	-1,733
232	15,667
232,5	16,067
232,9	9,267
233,4	20,467
233,9	-3,933
234,3	12,467
234,8	5,667
235,3	6,867
235,7	10,867
236,2	-12,933
236,7	21,267
237,1	-32,133
237,6	2,467
238,1	42,267
238,5	11,267
239	34,867
239,4	18,867
239,9	-4,133
240,4	13,267
240,8	-10,133
241,3	-24,933
241,8	0,867
242,2	-16,733
242,7	35,267
243,2	1,467
243,6	15,867
244,1	-1,933
244,6	-25,933
245	11,867
245,5	-10,533
245,9	13,467
246,4	-13,733
246,9	10,067
247,3	0,067
247,8	26,467
248,3	19,667
248,7	12,667
249,2	0,867
249,7	-8,333
250,1	10,067
250,6	21,267
251	-24,133
251,5	21,267
252	-4,733
252,4	8,067
252,9	-5,733
253,4	27,267
253,8	5,667
254,3	-20,733
254,8	-0,333
255,2	1,867
255,7	12,067
256,1	-4,533
256,6	-29,733
257,1	24,067
257,5	-4,333
258	10,667
258,5	1,467
258,9	1,467
259,4	11,067
259,9	27,067
260,3	-17,133
260,8	21,867
261,2	19,467
261,7	13,467
262,2	23,667
262,6	17,267
263,1	-4,333
263,6	18,067
264	-21,533
264,5	8,867
264,9	21,867
265,4	21,867
265,9	-5,133
266,3	-17,533
266,8	16,667
267,3	-17,133
267,7	-4,533
268,2	4,667
268,7	14,067
269,1	2,667
269,6	4,467
270	5,867
270,5	-16,733
271	24,467
271,4	1,467
271,9	-12,133
272,4	-19,733
272,8	0,867
273,3	11,667
273,7	2,067
274,2	24,467
274,7	14,267
275,1	3,267
275,6	-19,933
276,1	11,267
276,5	4,067
277	12,467
277,4	10,667
277,9	0,267
278,4	13,867
278,8	-1,133
279,3	20,067
279,8	-0,533
280,2	-18,533
280,7	9,867
281,1	6,067
281,6	-26,133
282,1	7,267
282,5	16,067
283	-19,533
283,4	-0,933
283,9	8,467
284,4	-17,333
284,8	-6,133
285,3	20,067
285,8	7,067
286,2	12,667
286,7	8,067
287,1	1,667
287,6	20,067
288,1	-2,133
288,5	13,067
289	12,067
289,5	-31,333
289,9	5,467
290,4	-0,933
290,8	2,667
291,3	33,467
291,8	18,067
292,2	-6,533
292,7	1,867
293,1	19,067
293,6	11,867
294,1	37,667
294,5	21,067
295	-11,133
295,5	12,067
295,9	24,667
296,4	-11,133
296,8	-0,133
297,3	14,267
297,8	10,667
298,2	-10,333
298,7	17,467
299,1	0,267
299,6	-11,133
300,1	19,867
300,5	-14,933
301	1,467
301,5	-12,933
301,9	-42,533
302,4	-7,333
302,8	6,867
303,3	-2,533
303,8	-15,333
304,2	27,667
304,7	-10,133
305,1	-11,733
305,6	19,067
306,1	-17,133
306,5	-6,133
307	-5,933
307,4	-18,133
307,9	-13,933
308,4	-26,333
308,8	4,467
309,3	5,067
309,8	24,067
310,2	2,667
310,7	2,267
311,1	4,067
311,6	-4,333
312,1	27,867
312,5	2,467
313	39,067
313,4	10,067
313,9	-4,533
314,4	-15,933
314,8	-12,333
315,3	8,667
315,7	7,467
316,2	22,267
316,7	-5,333
317,1	-34,933
317,6	-9,733
318	-11,533
318,5	9,867
319	-12,933
319,4	17,067
319,9	6,867
320,3	-4,333
320,8	-2,333
321,3	-13,933
321,7	14,067
322,2	-4,133
322,6	-2,333
323,1	15,667
323,6	-28,133
324	3,867
324,5	-8,733
324,9	-19,333
325,4	8,667
325,9	6,867
326,3	24,467
326,8	4,067
327,2	-2,933
327,7	19,467
328,2	-4,333
328,6	29,467
329,1	15,467
329,5	8,067
330	-6,533
330,5	5,867
330,9	-2,733
331,4	2,667
331,8	16,467
332,3	-21,133
332,8	13,667
333,2	25,067
333,7	13,067
334,1	9,867
334,6	-1,733
335,1	-13,333
335,5	22,067
336	12,267
336,4	7,067
336,9	-36,733
337,4	-2,533
337,8	18,267
338,3	-1,333
338,7	13,467
339,2	-22,933
339,7	23,667
340,1	-32,333
340,6	1,467
341	-8,333
341,5	20,667
342	-2,333
342,4	32,467
342,9	12,267
343,3	23,267
343,8	25,867
344,2	-24,733
344,7	17,667
345,2	30,867
345,6	-12,533
346,1	25,267
346,5	8,067
347	23,067
347,5	27,667
347,9	18,467
348,4	20,267
348,8	5,467
349,3	-4,533
349,8	1,267
350,2	-2,533
350,7	8,067
351,1	-0,733
351,6	31,467
352	30,467
352,5	13,267
353	5,667
353,4	0,067
353,9	14,867
354,3	35,667
354,8	21,667
355,3	69,667
355,7	49,667
356,2	23,067
356,6	58,467
357,1	85,067
357,5	85,467
358	94,267
358,5	125,267
358,9	146,267
359,4	155,067
359,8	168,267
360,3	222,867
360,8	229,067
361,2	289,267
361,7	309,467
362,1	352,667
362,6	384,667
363	409,467
363,5	448,667
364	496,867
364,4	575,267
364,9	612,667
365,3	703,467
365,8	738,267
366,3	784,467
366,7	845,267
367,2	881,067
367,6	918,267
368,1	939,267
368,5	973,067
369	964,867
369,5	955,067
369,9	938,267
370,4	947,467
370,8	935,467
371,3	882,867
371,7	870,067
372,2	809,867
372,7	789,467
373,1	748,467
373,6	687,267
374	659,867
374,5	632,667
374,9	559,667
375,4	509,667
375,9	475,467
376,3	468,267
376,8	431,667
377,2	372,067
377,7	364,867
378,2	307,467
378,6	303,467
379,1	264,667
379,5	226,067
380	194,867
380,4	219,067
380,9	194,667
381,4	186,067
381,8	163,267
382,3	167,867
382,7	142,667
383,2	125,667
383,6	135,867
384,1	121,467
384,6	113,067
385	61,667
385,5	100,267
385,9	105,467
386,4	81,867
386,8	76,067
387,3	63,667
387,7	80,467
388,2	41,467
388,7	57,267
389,1	69,267
389,6	49,267
390	18,667
390,5	50,067
390,9	39,867
391,4	27,067
391,9	32,867
392,3	61,667
392,8	31,067
393,2	42,867
393,7	28,867
394,1	30,867
394,6	35,867
395,1	23,667
395,5	40,867
396	15,267
396,4	57,667
396,9	12,467
397,3	22,867
397,8	6,467
398,2	21,867
398,7	48,467
399,2	27,667
399,6	11,467
400,1	1,467
400,5	10,267
401	3,467
401,4	47,267
401,9	17,067
402,4	15,867
402,8	8,467
403,3	24,067
403,7	56,267
404,2	12,467
404,6	8,867
405,1	33,267
405,5	-10,933
406	38,467
406,5	12,267
406,9	-8,133
407,4	14,267
407,8	34,867
408,3	33,867
408,7	25,067
409,2	42,467
409,6	-4,933
410,1	37,467
410,6	23,067
411	36,467
411,5	28,667
411,9	30,667
412,4	42,467
412,8	48,667
413,3	29,867
413,7	53,067
414,2	35,067
414,7	66,667
415,1	39,067
415,6	67,467
416	40,267
416,5	37,867
416,9	93,667
417,4	12,867
417,8	67,067
418,3	29,467
418,8	45,467
419,2	38,667
419,7	73,867
420,1	75,467
420,6	54,667
421	60,267
421,5	76,067
421,9	103,267
422,4	80,267
422,8	75,667
423,3	62,867
423,8	83,267
424,2	81,667
424,7	71,067
425,1	105,867
425,6	72,067
426	66,467
426,5	96,267
426,9	111,667
427,4	104,867
427,9	113,267
428,3	123,667
428,8	88,267
429,2	111,467
429,7	131,067
430,1	114,267
430,6	152,667
431	109,867
431,5	116,667
431,9	136,867
432,4	106,067
432,8	134,667
433,3	161,067
433,8	131,267
434,2	148,667
434,7	176,267
435,1	144,267
435,6	143,867
436	195,867
436,5	175,067
436,9	212,667
437,4	204,867
437,8	214,667
438,3	204,867
438,8	226,267
439,2	242,467
439,7	228,667
440,1	262,667
440,6	260,467
441	269,267
441,5	303,067
441,9	301,267
442,4	309,467
442,8	310,067
443,3	320,067
443,7	344,467
444,2	375,267
444,7	354,267
445,1	371,267
445,6	372,267
446	416,467
446,5	445,067
446,9	459,867
447,4	449,667
447,8	452,867
448,3	502,667
448,7	515,267
449,2	515,667
449,6	504,267
450,1	564,867
450,6	570,467
451	632,267
451,5	624,467
451,9	640,867
452,4	634,267
452,8	664,067
453,3	683,267
453,7	762,267
454,2	739,067
454,6	762,067
455,1	815,667
455,5	820,067
456	847,867
456,4	891,867
456,9	892,467
457,3	876,667
457,8	932,267
458,3	936,067
458,7	985,067
459,2	1006,467
459,6	1043,667
460,1	1051,467
460,5	1087,667
461	1087,667
461,4	1104,667
461,9	1164,467
462,3	1191,867
462,8	1166,067
463,2	1242,067
463,7	1256,867
464,1	1289,467
464,6	1333,667
465	1325,667
465,5	1383,067
466	1401,067
466,4	1372,667
466,9	1405,467
467,3	1475,667
467,8	1494,067
468,2	1529,867
468,7	1529,867
469,1	1550,467
469,6	1598,467
470	1626,667
470,5	1665,467
470,9	1656,467
471,4	1636,267
471,8	1704,067
472,3	1787,867
472,7	1741,267
473,2	1791,667
473,6	1812,467
474,1	1827,267
474,5	1824,467
475	1844,867
475,4	1916,667
475,9	1917,267
476,4	1924,267
476,8	1979,667
477,3	1982,067
477,7	2011,267
478,2	2019,867
478,6	2061,467
479,1	2033,867
479,5	2063,867
480	2089,667
480,4	2113,267
480,9	2156,067
481,3	2131,467
481,8	2147,867
482,2	2157,667
482,7	2163,867
483,1	2208,667
483,6	2232,667
484	2252,867
484,5	2275,867
484,9	2271,467
485,4	2244,667
485,8	2326,467
486,3	2288,067
486,7	2290,867
487,2	2293,267
487,6	2358,067
488,1	2321,667
488,5	2365,267
489	2339,467
489,4	2338,867
489,9	2385,667
490,4	2367,667
490,8	2370,867
491,3	2361,667
491,7	2375,267
492,2	2403,867
492,6	2417,267
493,1	2349,867
493,5	2388,067
494	2443,867
494,4	2425,867
494,9	2388,067
495,3	2378,667
495,8	2412,467
496,2	2414,667
496,7	2389,267
497,1	2413,267
497,6	2383,667
498	2423,467
498,5	2369,467
498,9	2363,267
499,4	2402,067
499,8	2373,067
500,3	2417,667
500,7	2380,267
501,2	2369,067
501,6	2350,267
502,1	2371,467
502,5	2347,467
503	2413,867
503,4	2370,267
503,9	2340,867
504,3	2320,867
504,8	2333,867
505,2	2325,267
505,7	2351,667
506,1	2321,667
506,6	2328,067
507	2323,667
507,5	2346,867
507,9	2318,867
508,4	2305,467
508,8	2318,267
509,3	2289,267
509,7	2307,267
510,2	2306,867
510,6	2279,467
511,1	2286,267
511,5	2231,667
512	2250,067
512,4	2252,067
512,9	2228,467
513,3	2259,667
513,8	2207,667
514,2	2201,067
514,7	2184,667
515,1	2194,267
515,6	2217,667
516	2223,667
516,5	2196,067
516,9	2180,467
517,4	2161,467
517,8	2152,867
518,3	2126,867
518,7	2181,067
519,2	2115,467
519,6	2119,467
520,1	2105,267
520,5	2127,667
521	2141,667
521,4	2072,267
521,9	2077,467
522,3	2116,467
522,8	2095,667
523,2	2078,067
523,7	2060,867
524,1	2075,667
524,6	2036,867
525	2037,067
525,5	2021,867
525,9	2033,267
526,4	2024,067
526,8	1991,467
527,3	1979,667
527,7	2004,467
528,2	2002,667
528,6	1975,467
529,1	2001,867
529,5	1948,067
530	1973,067
530,4	1946,867
530,9	1987,067
531,3	1995,467
531,8	1947,667
532,2	1931,067
532,6	1956,867
533,1	1932,467
533,5	1949,067
534	1937,867
534,4	1912,667
534,9	1905,467
535,3	1941,467
535,8	1922,067
536,2	1894,467
536,7	1907,467
537,1	1905,867
537,6	1910,467
538	1907,067
538,5	1899,267
538,9	1899,067
539,4	1892,867
539,8	1906,267
540,3	1837,667
540,7	1839,067
541,2	1879,467
541,6	1857,067
542,1	1843,267
542,5	1867,467
543	1889,867
543,4	1836,667
543,9	1928,467
544,3	1844,267
544,8	1847,267
545,2	1852,067
545,7	1856,867
546,1	1832,267
546,5	1832,667
547	1860,667
547,4	1835,267
547,9	1797,067
548,3	1839,067
548,8	1793,867
549,2	1833,267
549,7	1798,667
550,1	1816,467
550,6	1796,867
551	1797,467
551,5	1792,267
551,9	1818,067
552,4	1819,667
552,8	1801,667
553,3	1767,467
553,7	1766,667
554,2	1753,467
554,6	1775,867
555,1	1784,467
555,5	1757,667
555,9	1793,267
556,4	1798,667
556,8	1793,067
557,3	1765,867
557,7	1798,067
558,2	1766,867
558,6	1775,267
559,1	1757,267
559,5	1750,467
560	1768,067
560,4	1725,267
560,9	1732,867
561,3	1750,067
561,8	1745,267
562,2	1758,667
562,7	1736,067
563,1	1759,267
563,6	1738,667
564	1753,067
564,4	1744,467
564,9	1732,067
565,3	1752,267
565,8	1724,467
566,2	1735,867
566,7	1739,067
567,1	1725,867
567,6	1722,867
568	1738,067
568,5	1711,867
568,9	1691,867
569,4	1695,467
569,8	1738,267
570,3	1670,667
570,7	1710,067
571,1	1709,067
571,6	1718,667
572	1667,667
572,5	1674,467
572,9	1682,267
573,4	1651,867
573,8	1660,467
574,3	1681,467
574,7	1661,267
575,2	1679,067
575,6	1702,867
576,1	1652,267
576,5	1657,467
576,9	1636,467
577,4	1663,467
577,8	1672,267
578,3	1638,067
578,7	1638,867
579,2	1657,667
579,6	1661,067
580,1	1589,067
580,5	1644,467
581	1624,467
581,4	1643,467
581,9	1628,667
582,3	1606,467
582,7	1625,467
583,2	1593,467
583,6	1556,467
584,1	1584,867
584,5	1578,067
585	1568,467
585,4	1576,267
585,9	1588,067
586,3	1544,267
586,8	1560,067
587,2	1571,067
587,6	1553,867
588,1	1521,467
588,5	1550,267
589	1547,467
589,4	1532,467
589,9	1556,667
590,3	1525,267
590,8	1538,667
591,2	1509,467
591,7	1524,267
592,1	1508,667
592,5	1475,467
593	1504,267
593,4	1508,267
593,9	1496,267
594,3	1493,867
594,8	1501,867
595,2	1491,667
595,7	1475,267
596,1	1448,267
596,6	1486,667
597	1457,267
597,4	1467,667
597,9	1443,667
598,3	1425,667
598,8	1449,667
599,2	1485,867
599,7	1436,867
600,1	1451,267
600,6	1414,467
601	1438,667
601,4	1429,267
601,9	1409,867
602,3	1385,667
602,8	1386,867
603,2	1428,267
603,7	1398,867
604,1	1402,867
604,6	1382,467
605	1364,867
605,4	1366,267
605,9	1374,667
606,3	1367,667
606,8	1375,267
607,2	1372,867
607,7	1336,067
608,1	1346,267
608,6	1350,667
609	1340,067
609,4	1361,867
609,9	1320,267
610,3	1355,467
610,8	1328,467
611,2	1290,267
611,7	1295,067
612,1	1300,667
612,6	1292,467
613	1314,267
613,4	1269,067
613,9	1264,667
614,3	1235,867
614,8	1240,267
615,2	1299,267
615,7	1244,067
616,1	1252,067
616,6	1269,267
617	1229,067
617,4	1200,667
617,9	1237,067
618,3	1223,867
618,8	1198,667
619,2	1217,667
619,7	1225,067
620,1	1198,667
620,5	1179,867
621	1185,467
621,4	1175,467
621,9	1156,867
622,3	1176,667
622,8	1156,067
623,2	1163,267
623,6	1158,867
624,1	1120,267
624,5	1157,267
625	1160,067
625,4	1147,867
625,9	1159,267
626,3	1150,467
626,8	1122,267
627,2	1121,467
627,6	1116,067
628,1	1101,867
628,5	1087,467
629	1087,067
629,4	1097,667
629,9	1086,667
630,3	1033,867
630,7	1068,667
631,2	1070,467
631,6	1028,667
632,1	1063,267
632,5	1019,867
633	1038,067
633,4	1042,267
633,8	1007,067
634,3	1029,867
634,7	1017,867
635,2	1004,267
635,6	980,467
636,1	1002,267
636,5	996,667
636,9	966,067
637,4	971,667
637,8	947,467
638,3	963,867
638,7	947,067
639,2	944,267
639,6	946,267
640	928,667
640,5	911,667
640,9	943,067
641,4	923,067
641,8	927,867
642,2	936,267
642,7	908,267
643,1	897,867
643,6	885,467
644	901,267
644,5	892,467
644,9	908,667
645,3	902,267
645,8	893,267
646,2	863,067
646,7	863,267
647,1	856,667
647,6	869,467
648	838,667
648,4	893,667
648,9	879,667
649,3	856,267
649,8	822,867
650,2	836,467
650,6	817,467
651,1	794,667
651,5	838,867
652	836,267
652,4	814,867
652,9	822,467
653,3	808,667
653,7	780,467
654,2	792,867
654,6	800,667
655,1	767,467
655,5	784,267
655,9	776,667
656,4	746,467
656,8	771,467
657,3	740,067
657,7	738,667
658,2	777,467
658,6	713,867
659	745,867
659,5	701,267
659,9	734,667
660,4	736,667
660,8	729,867
661,2	712,267
661,7	713,467
662,1	696,667
662,6	706,867
663	735,467
663,4	689,067
663,9	662,667
664,3	666,067
664,8	658,267
665,2	685,267
665,6	687,267
666,1	642,667
666,5	647,467
667	641,867
667,4	686,667
667,9	660,867
668,3	681,667
668,7	642,867
669,2	609,267
669,6	640,667
670,1	622,667
670,5	641,467
670,9	651,467
671,4	596,267
671,8	638,067
672,3	605,467
672,7	609,467
673,1	605,467
673,6	584,067
674	576,267
674,5	605,667
674,9	560,667
675,3	556,867
675,8	574,867
676,2	577,067
676,7	547,867
677,1	574,267
677,5	544,067
678	566,867
678,4	561,867
678,9	554,867
679,3	508,467
679,7	555,067
680,2	523,267
680,6	530,467
681,1	527,067
681,5	558,467
681,9	550,667
682,4	520,867
682,8	528,867
683,3	492,067
683,7	509,867
684,1	523,067
684,6	516,467
685	524,067
685,5	464,667
685,9	461,667
686,3	481,867
686,8	458,667
687,2	472,867
687,7	479,067
688,1	476,667
688,5	475,467
689	472,467
689,4	478,467
689,9	496,667
690,3	461,267
690,7	439,467
691,2	431,467
691,6	438,267
692	476,067
692,5	420,867
692,9	469,467
693,4	465,467
693,8	430,067
694,2	431,067
694,7	411,667
695,1	433,667
695,6	432,067
696	425,067
696,4	400,867
696,9	399,267
697,3	417,667
697,8	423,667
698,2	403,067
698,6	407,067
699,1	398,067
699,5	395,867
699,9	363,867
700,4	402,267
700,8	377,067
701,3	419,267
701,7	406,067
702,1	369,467
702,6	380,267
703	369,267
703,5	363,467
703,9	381,867
704,3	381,267
704,8	328,067
705,2	359,267
705,6	365,667
706,1	334,267
706,5	376,867
707	353,867
707,4	341,667
707,8	373,667
708,3	356,867
708,7	330,667
709,2	340,867
709,6	325,467
710	306,267
710,5	319,067
710,9	340,067
711,3	338,867
711,8	330,067
712,2	339,467
712,7	336,267
713,1	325,267
713,5	315,867
714	310,867
714,4	313,267
714,8	325,667
715,3	303,667
715,7	315,267
716,2	306,467
716,6	323,067
717	286,667
717,5	313,067
717,9	278,267
718,3	295,667
718,8	290,467
719,2	321,867
719,7	307,067
720,1	267,067
720,5	319,267
721	290,867
721,4	276,067
721,8	292,867
722,3	282,267
722,7	260,667
723,2	279,667
723,6	256,067
724	272,667
724,5	264,667
724,9	270,267
725,3	254,667
725,8	245,267
726,2	258,067
726,7	235,067
727,1	271,467
727,5	244,667
728	228,467
728,4	262,667
728,8	223,267
729,3	229,267
729,7	215,667
730,1	235,267
730,6	219,267
731	216,267
731,5	262,067
731,9	244,867
732,3	226,067
732,8	212,667
733,2	237,467
733,6	216,467
734,1	230,267
734,5	241,867
734,9	228,467
735,4	204,467
735,8	224,267
736,3	194,267
736,7	235,667
737,1	220,467
737,6	239,467
738	201,867
738,4	202,267
738,9	181,867
739,3	221,067
739,7	227,667
740,2	227,867
740,6	165,067
741,1	219,867
741,5	176,667
741,9	193,067
742,4	210,067
742,8	181,867
743,2	205,467
743,7	195,467
744,1	201,267
744,5	208,867
745	220,867
745,4	203,667
745,8	171,867
746,3	166,467
746,7	193,867
747,2	186,267
747,6	173,467
748	167,667
748,5	167,667
748,9	183,467
749,3	180,467
749,8	193,467
750,2	154,267
750,6	165,267
751,1	154,667
751,5	162,667
751,9	141,867
752,4	181,667
752,8	141,667
753,3	177,867
753,7	196,067
754,1	167,867
754,6	154,667
755	143,867
755,4	161,667
755,9	198,867
756,3	174,267
756,7	141,267
757,2	155,267
757,6	141,267
758	173,467
758,5	144,467
758,9	167,867
759,3	138,067
759,8	134,467
760,2	160,067
760,6	124,067
761,1	129,667
761,5	140,267
761,9	125,667
762,4	155,867
762,8	178,867
763,3	130,867
763,7	150,667
764,1	132,267
764,6	143,267
765	109,467
765,4	138,067
765,9	136,867
766,3	128,667
766,7	140,267
767,2	156,867
767,6	144,667
768	114,467
768,5	127,067
768,9	134,667
769,3	119,267
769,8	115,467
770,2	118,067
770,6	111,067
771,1	90,667
771,5	119,467
771,9	137,667
772,4	126,667
772,8	132,467
773,2	108,467
773,7	134,067
774,1	118,667
774,5	109,267
775	83,067
775,4	107,867
775,8	93,467
776,3	113,067
776,7	80,267
777,1	133,467
777,6	114,067
778	109,467
778,4	78,267
778,9	114,267
779,3	115,467
779,7	99,667
780,2	130,867
780,6	109,467
781	141,467
781,5	82,867
781,9	101,267
782,3	108,467
782,8	113,067
783,2	91,867
783,6	83,667
784,1	101,267
784,5	92,267
784,9	104,667
785,4	110,667
785,8	87,467
786,2	68,667
786,7	99,667
787,1	69,867
787,5	95,267
788	86,467
788,4	88,267
788,8	93,267
789,3	90,267
789,7	90,667
790,1	90,067
790,6	113,267
791	102,667
791,4	98,067
791,9	112,667
792,3	103,467
792,7	74,267
793,2	79,867
793,6	71,467
794	107,067
794,5	86,067
794,9	95,667
795,3	79,067
795,8	69,267
796,2	87,267
796,6	59,467
797,1	100,667
797,5	92,267
797,9	71,667
798,4	95,667
798,8	87,667
799,2	96,267
799,7	59,467
800,1	62,467
800,5	69,067
801	51,467
801,4	65,067
801,8	67,067
802,2	73,467
802,7	63,267
803,1	58,267
803,5	73,467
804	32,867
804,4	79,667
804,8	89,467
805,3	61,267
805,7	84,667
806,1	43,267
806,6	79,867
807	61,667
807,4	71,867
807,9	62,667
808,3	69,067
808,7	44,867
809,2	64,867
809,6	50,067
810	90,467
810,4	89,867
810,9	87,667
811,3	78,867
811,7	55,867
812,2	62,667
812,6	58,867
813	75,267
813,5	51,267
813,9	89,467
814,3	35,867
814,8	27,267
815,2	49,467
815,6	63,867
816,1	59,467
816,5	74,667
816,9	56,667
817,3	50,667
817,8	11,067
818,2	38,867
818,6	34,267
819,1	46,067
819,5	94,067
819,9	69,067
820,4	62,467
820,8	46,067
821,2	65,267
821,7	12,867
822,1	49,667
822,5	70,667
822,9	48,667
823,4	36,267
823,8	48,667
824,2	17,667
824,7	42,067
825,1	82,067
825,5	53,267
826	62,467
826,4	47,067
826,8	78,267
827,3	57,267
827,7	48,267
828,1	57,267
828,5	38,067
829	48,267
829,4	53,667
829,8	41,267
830,3	25,467
830,7	53,667
831,1	13,267
831,6	51,267
832	23,067
832,4	38,067
832,8	59,867
833,3	41,067
833,7	46,667
834,1	54,867
834,6	32,467
835	63,267
835,4	53,067
835,8	-5,733
836,3	49,267
836,7	62,467
837,1	61,867
837,6	28,267
838	72,667
838,4	64,067
838,9	50,667
839,3	57,067
839,7	43,467
840,1	44,867
840,6	38,067
841	-1,333
841,4	25,467
841,9	55,267
842,3	57,067
842,7	39,267
843,1	60,267
843,6	45,467
844	46,267
844,4	22,267
844,9	78,867
845,3	36,467
845,7	42,867
846,2	14,467
846,6	43,067
847	-1,533
847,4	17,867
847,9	30,867
848,3	57,667
848,7	43,467
849,2	17,667
849,6	55,467
850	38,867
850,4	81,267
850,9	28,267
851,3	16,667
851,7	60,267
852,2	36,467
852,6	27,067
853	26,267
853,4	29,067
853,9	61,067
854,3	21,667
854,7	37,267
855,2	32,867
855,6	41,267
856	4,867
856,4	36,867
856,9	40,667
857,3	36,267
857,7	-1,133
858,2	-2,533
858,6	12,467
859	37,267
859,4	31,467
859,9	49,267
860,3	25,867
860,7	22,667
861,1	38,467
861,6	23,067
862	34,067
862,4	54,667
862,9	52,667
863,3	31,467
863,7	36,267
864,1	45,667
864,6	25,467
865	29,267
865,4	41,667
865,9	-9,733
866,3	40,867
866,7	25,267
867,1	10,467
867,6	60,667
868	40,267
868,4	9,467
868,8	24,667
869,3	45,467
869,7	32,467
870,1	23,867
870,6	32,867
871	14,667
871,4	28,067
871,8	51,267
872,3	-306,533
872,7	-20,333
873,1	32,867
873,5	53,867
874	0,467
874,4	35,867
874,8	13,667
875,3	31,067
875,7	24,867
876,1	21,467
876,5	18,467
877	27,467
877,4	-14,333
877,8	37,267
878,2	2,867
878,7	44,867
879,1	29,667
879,5	7,867
879,9	12,267
880,4	29,067
880,8	-3,533
881,2	27,267
881,7	32,467
882,1	6,667
882,5	11,867
882,9	16,867
883,4	20,667
883,8	27,067
884,2	-0,333
884,6	12,667
885,1	17,267
885,5	28,467
885,9	10,867
886,3	33,067
886,8	-11,333
887,2	0,467
887,6	19,467
888	8,467
888,5	1,467
888,9	4,867
889,3	41,467
889,8	6,267
890,2	51,267
890,6	2,267
891	10,467
891,5	-2,933
891,9	23,867
892,3	-5,733
892,7	-1,733
893,2	11,467
893,6	30,467
894	32,667
894,4	0,467
894,9	2,867
895,3	-0,333
895,7	24,067
896,1	17,467
896,6	28,667
897	9,067
897,4	31,067
897,8	19,467
898,3	-24,333
898,7	-4,933
899,1	8,667
899,5	-17,533
900	25,267
900,4	10,867
900,8	21,467
901,2	10,867
901,7	-19,933
902,1	26,267
902,5	32,467
902,9	8,667
903,4	-0,333
903,8	-13,333
904,2	52,467
904,6	-11,933
905,1	-20,333
905,5	-6,333
905,9	31,867
906,3	15,667
906,8	-15,333
907,2	14,267
907,6	-16,733
908	5,667
908,5	33,267
908,9	-11,533
909,3	0,667
909,7	19,867
910,2	0,867
910,6	33,867
911	15,667
911,4	21,267
911,9	28,867
912,3	9,267
912,7	8,267
913,1	-7,133
913,6	6,467
914	15,267
914,4	0,267
914,8	14,067
915,3	-24,733
915,7	-6,333
916,1	8,867
916,5	5,867
916,9	-6,933
917,4	-9,933
917,8	1,867
918,2	3,867
918,6	2,467
919,1	25,067
919,5	-17,733
919,9	12,467
920,3	1,267
920,8	0,867
921,2	36,867
921,6	9,267
922	34,067
922,5	5,267
922,9	3,467
923,3	-3,333
923,7	24,867
924,2	-3,533
924,6	3,267
925	31,867
925,4	22,267
925,8	10,467
926,3	14,467
926,7	-4,733
927,1	29,667
927,5	33,067
928	28,667
928,4	12,067
928,8	-13,133
929,2	9,867
929,7	12,467
930,1	18,267
930,5	49,467
930,9	17,267
931,3	12,667
931,8	-6,333
932,2	-1,533
932,6	-0,733
933	5,667
933,5	14,267
933,9	43,067
934,3	-0,533
934,7	9,267
935,2	-4,733
935,6	13,267
936	-4,733
936,4	11,067
936,8	-5,333
937,3	-12,733
937,7	-10,933
938,1	34,067
938,5	8,467
939	-33,333
939,4	11,467
939,8	18,267
940,2	-17,733
940,6	32,467
941,1	1,867
941,5	-18,733
941,9	43,467
942,3	-17,333
942,8	12,667
943,2	5,467
943,6	17,867
944	2,667
944,4	-7,333
944,9	13,667
945,3	15,867
945,7	-12,733
946,1	-17,333
946,6	24,067
947	-7,733
947,4	17,867
947,8	28,467
948,2	16,067
948,7	-9,733
949,1	-7,133
949,5	0,467
949,9	-11,933
950,3	-18,333
950,8	9,467
951,2	12,067
951,6	-4,933
952	2,267
952,5	25,467
952,9	-9,533
953,3	-1,533
953,7	0,067
954,1	9,467
954,6	21,267
955	0,667
955,4	39,667
955,8	2,467
956,2	-15,533
956,7	-26,933
957,1	-7,933
957,5	8,867
957,9	25,667
958,3	10,067
958,8	13,467
959,2	14,067
959,6	-5,333
960	-3,933
960,5	6,267
960,9	13,867
961,3	5,667
961,7	-9,133
962,1	3,467
962,6	31,667
963	-16,933
963,4	4,267
963,8	5,667
964,2	-29,933
964,7	-2,133
965,1	-13,533
965,5	32,467
965,9	-2,133
966,3	5,267
966,8	19,267
967,2	1,267
967,6	16,867
968	21,267
968,4	-13,333
968,9	0,467
969,3	5,867
969,7	29,067
970,1	4,467
970,5	13,067
971	12,667
971,4	-2,533
971,8	4,267
972,2	12,067
972,6	8,867
973,1	9,667
973,5	-9,933
973,9	14,867
974,3	12,067
974,7	-5,333
975,2	6,267
975,6	-3,133
976	39,267
976,4	26,267
976,8	-1,933
977,3	24,067
977,7	37,467
978,1	-13,733
978,5	11,467
978,9	-2,933
979,4	14,067
979,8	30,667
980,2	-6,133
980,6	30,667
981	18,267
981,5	-23,133
981,9	-4,933
982,3	-25,333
982,7	18,667
983,1	7,867
983,6	-6,733
984	18,867
984,4	-8,333
984,8	11,867
985,2	-4,933
985,6	12,067
986,1	22,067
986,5	25,267
986,9	17,867
987,3	-0,733
987,7	26,067
988,2	12,267
988,6	32,267
989	1,467
989,4	26,067
989,8	25,867
990,3	40,067
990,7	21,867
991,1	12,667
991,5	-0,333
991,9	26,067
992,3	5,267
992,8	11,267
993,2	28,067
993,6	2,267
994	-11,533
994,4	1,067
994,9	25,067
995,3	-2,533
995,7	36,267
996,1	9,867
996,5	-6,133
996,9	15,467
997,4	-21,333
997,8	0,467
998,2	-1,733
998,6	0,067
999	30,667
999,5	-16,733
999,9	6,867
1000,3	20,667
1000,7	9,467
1001,1	-9,333
1001,5	-31,933
1002	8,867
1002,4	-9,533
1002,8	11,867
1003,2	22,467
1003,6	4,667
1004	2,267
1004,5	-5,533
1004,9	30,067
1005,3	3,267
1005,7	-17,733
1006,1	4,267
1006,6	15,267
1007	24,667
1007,4	3,667
1007,8	17,067
1008,2	27,467
1008,6	24,067
1009,1	11,667
1009,5	-3,533
1009,9	18,267
1010,3	2,067
1010,7	-16,933
1011,1	0,067
1011,6	24,867
1012	2,267
1012,4	-11,733
1012,8	7,467
1013,2	-8,733
1013,6	25,667
1014,1	-15,733
1014,5	22,467
1014,9	4,667
1015,3	5,867
1015,7	-13,733
1016,1	8,867
1016,6	-15,333
1017	13,867
1017,4	13,067
1017,8	-8,533
1018,2	10,267
1018,6	14,667
1019,1	11,867
1019,5	-32,533
1019,9	-17,933
1020,3	-1,333
1020,7	12,867
1021,1	0,267
1021,6	23,667
1022	-10,533
1022,4	11,267
1022,8	-21,333
1023,2	-13,533
1023,6	30,067
1024,1	-24,133
1024,5	4,667
1024,9	10,867
1025,3	33,267
1025,7	7,867
1026,1	-18,733
1026,6	-0,333
1027	25,667
1027,4	8,067
1027,8	42,067
1028,2	30,467
1028,6	2,667
1029	-18,133
1029,5	20,667
1029,9	5,867
1030,3	34,067
1030,7	-2,933
1031,1	31,467
1031,5	17,267
1032	-7,333
1032,4	15,667
1032,8	22,467
1033,2	-37,933
1033,6	23,667
1034	13,667
1034,4	13,267
1034,9	-20,933
1035,3	-14,933
1035,7	29,267
1036,1	15,067
1036,5	-5,533
1036,9	18,867
1037,4	-12,133
1037,8	32,267
1038,2	-18,333
1038,6	-0,733
1039	8,267
1039,4	56,267
1039,8	12,067
1040,3	3,867
1040,7	-4,733
1041,1	7,667
1041,5	26,067
1041,9	27,867
1042,3	8,867
1042,7	-32,933
1043,2	-22,933
1043,6	-21,133
1044	-18,733
1044,4	1,267
1044,8	-1,733
1045,2	-2,733
1045,6	-9,933
1046,1	-13,533
1046,5	-10,933
1046,9	50,867
1047,3	-15,733
1047,7	24,867
1048,1	-2,333
1048,5	1,067
1049	0,867
1049,4	-18,733
1049,8	-3,533
1050,2	9,667
1050,6	22,667
1051	-15,333
1051,4	-13,133
1051,9	-3,533
1052,3	38,467
1052,7	50,067
1053,1	-8,733
1053,5	34,467
1053,9	-34,533
1054,3	13,267
1054,8	-6,133
1055,2	-15,133
1055,6	41,467
1056	18,867
1056,4	3,867
1056,8	1,867
1057,2	-17,133
1057,6	-10,133
1058,1	20,467
1058,5	7,067
1058,9	17,067
1059,3	-5,333
1059,7	1,267
1060,1	4,667
1060,5	19,667
1061	-6,333
1061,4	24,267
1061,8	21,667
1062,2	-19,733
1062,6	15,667
1063	18,467
1063,4	8,267
1063,8	13,067
1064,3	5,867
1064,7	23,667
1065,1	-6,533
1065,5	49,667
1065,9	7,867
1066,3	12,467
1066,7	11,467
1067,1	8,467
1067,6	-20,933
1068	-4,533
1068,4	48,267
1068,8	-5,333
1069,2	26,067
1069,6	20,067
1070	-30,333
1070,4	-3,533
1070,9	42,867
1071,3	22,867
1071,7	-3,333
1072,1	0,467
1072,5	5,467
1072,9	-13,133
1073,3	13,467
1073,7	8,667
1074,2	-8,933
1074,6	13,867
1075	27,467
1075,4	-26,333
1075,8	6,467
1076,2	-2,333
1076,6	33,067
1077	1,267
1077,5	26,667
1077,9	5,867
1078,3	-2,933
1078,7	-9,133
1079,1	-3,533
1079,5	-5,533
1079,9	-14,133
1080,3	9,067
1080,7	2,867
1081,2	19,667
1081,6	21,667
1082	14,867
1082,4	14,667
1082,8	-3,533
1083,2	-1,933
1083,6	-3,333
1084	-6,533
1084,5	4,467
1084,9	1,067
1085,3	8,467
1085,7	10,467
1086,1	-19,733
1086,5	23,467
1086,9	-16,333
1087,3	-9,133
1087,7	-17,733
1088,2	-4,733
1088,6	4,267
1089	12,867
1089,4	-11,133
1089,8	-0,733
1090,2	12,467
1090,6	3,867
1091	-13,133
1091,4	-19,133
1091,9	0,067
1092,3	27,467
1092,7	-3,533
1093,1	4,867
1093,5	24,867
1093,9	3,867
1094,3	4,067
1094,7	53,067
1095,1	-8,533
1095,5	-8,333
1096	18,267
1096,4	19,667
1096,8	41,067
1097,2	-15,733
1097,6	2,467
1098	-5,533
1098,4	4,067
1098,8	3,067
1099,2	28,067
1099,6	14,267
1100,1	7,267
1100,5	-0,933
1100,9	12,867
1101,3	18,867
1101,7	-6,533
1102,1	-18,533
1102,5	13,067
1102,9	15,267
1103,3	-5,133
1103,7	15,067
1104,2	3,267
1104,6	21,067
1105	-16,133
1105,4	25,867
1105,8	3,467
1106,2	23,267
1106,6	16,867
1107	-0,133
1107,4	0,067
1107,8	1,067
1108,3	0,667
